1,9,2,-1,-4,,2.25,0.5,-0.25,-1,,0.00225,0.0005,-0.00025,-0.001,,0.0225,0.005,-0.0025,-0.01
2,5,-5,13,10,,1.25,-1.25,3.25,2.5,,0.00125,-0.00125,0.00325,0.0025,,0.0125,-0.0125,0.0325,0.025
3,-3,-7,9,-2,,-0.75,-1.75,2.25,-0.5,,-0.00075,-0.00175,0.00225,-0.0005,,-0.0075,-0.0175,0.0225,-0.005
4,-3,-4,3,-8,,-0.75,-1,0.75,-2,,-0.00075,-0.001,0.00075,-0.002,,-0.0075,-0.01,0.0075,-0.02
5,-8,-1,11,2,,-2,-0.25,2.75,0.5,,-0.002,-0.00025,0.00275,0.0005,,-0.02,-0.0025,0.0275,0.005
6,-11,-1,14,2,,-2.75,-0.25,3.5,0.5,,-0.00275,-0.00025,0.0035,0.0005,,-0.0275,-0.0025,0.035,0.005
7,-10,-8,20,2,,-2.5,-2,5,0.5,,-0.0025,-0.002,0.005,0.0005,,-0.025,-0.02,0.05,0.005
8,-2,2,15,7,,-0.5,0.5,3.75,1.75,,-0.0005,0.0005,0.00375,0.00175,,-0.005,0.005,0.0375,0.0175
9,-11,2,15,4,,-2.75,0.5,3.75,1,,-0.00275,0.0005,0.00375,0.001,,-0.0275,0.005,0.0375,0.01
10,-5,8,2,2,,-1.25,2,0.5,0.5,,-0.00125,0.002,0.0005,0.0005,,-0.0125,0.02,0.005,0.005
11,5,7,-6,13,,1.25,1.75,-1.5,3.25,,0.00125,0.00175,-0.0015,0.00325,,0.0125,0.0175,-0.015,0.0325
12,1,4,2,0,,0.25,1,0.5,0,,0.00025,0.001,0.0005,0,,0.0025,0.01,0.005,0
13,4,6,-13,13,,1,1.5,-3.25,3.25,,0.001,0.0015,-0.00325,0.00325,,0.01,0.015,-0.0325,0.0325
14,9,5,-17,0,,2.25,1.25,-4.25,0,,0.00225,0.00125,-0.00425,0,,0.0225,0.0125,-0.0425,0
15,-1,10,-27,7,,-0.25,2.5,-6.75,1.75,,-0.00025,0.0025,-0.00675,0.00175,,-0.0025,0.025,-0.0675,0.0175
16,9,-6,-5,8,,2.25,-1.5,-1.25,2,,0.00225,-0.0015,-0.00125,0.002,,0.0225,-0.015,-0.0125,0.02
17,2,1,-8,5,,0.5,0.25,-2,1.25,,0.0005,0.00025,-0.002,0.00125,,0.005,0.0025,-0.02,0.0125
18,-3,2,1,2,,-0.75,0.5,0.25,0.5,,-0.00075,0.0005,0.00025,0.0005,,-0.0075,0.005,0.0025,0.005
19,-2,-7,6,-2,,-0.5,-1.75,1.5,-0.5,,-0.0005,-0.00175,0.0015,-0.0005,,-0.005,-0.0175,0.015,-0.005
20,-2,-8,13,5,,-0.5,-2,3.25,1.25,,-0.0005,-0.002,0.00325,0.00125,,-0.005,-0.02,0.0325,0.0125
21,4,1,14,-3,,1,0.25,3.5,-0.75,,0.001,0.00025,0.0035,-0.00075,,0.01,0.0025,0.035,-0.0075
22,-18,-8,16,-7,,-4.5,-2,4,-1.75,,-0.0045,-0.002,0.004,-0.00175,,-0.045,-0.02,0.04,-0.0175
23,-14,-4,29,4,,-3.5,-1,7.25,1,,-0.0035,-0.001,0.00725,0.001,,-0.035,-0.01,0.0725,0.01
24,-6,-7,25,2,,-1.5,-1.75,6.25,0.5,,-0.0015,-0.00175,0.00625,0.0005,,-0.015,-0.0175,0.0625,0.005
25,2,-4,14,2,,0.5,-1,3.5,0.5,,0.0005,-0.001,0.0035,0.0005,,0.005,-0.01,0.035,0.005
26,-1,-3,7,-8,,-0.25,-0.75,1.75,-2,,-0.00025,-0.00075,0.00175,-0.002,,-0.0025,-0.0075,0.0175,-0.02
27,-2,5,-6,-1,,-0.5,1.25,-1.5,-0.25,,-0.0005,0.00125,-0.0015,-0.00025,,-0.005,0.0125,-0.015,-0.0025
28,5,9,-14,5,,1.25,2.25,-3.5,1.25,,0.00125,0.00225,-0.0035,0.00125,,0.0125,0.0225,-0.035,0.0125
29,0,-1,1,9,,0,-0.25,0.25,2.25,,0,-0.00025,0.00025,0.00225,,0,-0.0025,0.0025,0.0225
30,6,-3,-17,4,,1.5,-0.75,-4.25,1,,0.0015,-0.00075,-0.00425,0.001,,0.015,-0.0075,-0.0425,0.01
31,7,-2,-24,13,,1.75,-0.5,-6,3.25,,0.00175,-0.0005,-0.006,0.00325,,0.0175,-0.005,-0.06,0.0325
32,6,1,-14,5,,1.5,0.25,-3.5,1.25,,0.0015,0.00025,-0.0035,0.00125,,0.015,0.0025,-0.035,0.0125
33,11,10,-2,2,,2.75,2.5,-0.5,0.5,,0.00275,0.0025,-0.0005,0.0005,,0.0275,0.025,-0.005,0.005
34,0,2,-4,-6,,0,0.5,-1,-1.5,,0,0.0005,-0.001,-0.0015,,0,0.005,-0.01,-0.015
35,-2,-9,-1,-2,,-0.5,-2.25,-0.25,-0.5,,-0.0005,-0.00225,-0.00025,-0.0005,,-0.005,-0.0225,-0.0025,-0.005
36,1,-1,5,5,,0.25,-0.25,1.25,1.25,,0.00025,-0.00025,0.00125,0.00125,,0.0025,-0.0025,0.0125,0.0125
37,-4,-1,5,4,,-1,-0.25,1.25,1,,-0.001,-0.00025,0.00125,0.001,,-0.01,-0.0025,0.0125,0.01
38,-7,-5,19,2,,-1.75,-1.25,4.75,0.5,,-0.00175,-0.00125,0.00475,0.0005,,-0.0175,-0.0125,0.0475,0.005
39,-15,-7,20,-7,,-3.75,-1.75,5,-1.75,,-0.00375,-0.00175,0.005,-0.00175,,-0.0375,-0.0175,0.05,-0.0175
40,-13,-9,24,3,,-3.25,-2.25,6,0.75,,-0.00325,-0.00225,0.006,0.00075,,-0.0325,-0.0225,0.06,0.0075
41,-2,4,24,-2,,-0.5,1,6,-0.5,,-0.0005,0.001,0.006,-0.0005,,-0.005,0.01,0.06,-0.005
42,-5,-8,17,2,,-1.25,-2,4.25,0.5,,-0.00125,-0.002,0.00425,0.0005,,-0.0125,-0.02,0.0425,0.005
43,2,-5,4,10,,0.5,-1.25,1,2.5,,0.0005,-0.00125,0.001,0.0025,,0.005,-0.0125,0.01,0.025
44,4,3,-3,5,,1,0.75,-0.75,1.25,,0.001,0.00075,-0.00075,0.00125,,0.01,0.0075,-0.0075,0.0125
45,-2,6,-13,-2,,-0.5,1.5,-3.25,-0.5,,-0.0005,0.0015,-0.00325,-0.0005,,-0.005,0.015,-0.0325,-0.005
46,1,10,-2,1,,0.25,2.5,-0.5,0.25,,0.00025,0.0025,-0.0005,0.00025,,0.0025,0.025,-0.005,0.0025
47,2,3,-21,7,,0.5,0.75,-5.25,1.75,,0.0005,0.00075,-0.00525,0.00175,,0.005,0.0075,-0.0525,0.0175
48,7,3,-28,8,,1.75,0.75,-7,2,,0.00175,0.00075,-0.007,0.002,,0.0175,0.0075,-0.07,0.02
49,3,13,-25,-1,,0.75,3.25,-6.25,-0.25,,0.00075,0.00325,-0.00625,-0.00025,,0.0075,0.0325,-0.0625,-0.0025
50,9,4,-12,8,,2.25,1,-3,2,,0.00225,0.001,-0.003,0.002,,0.0225,0.01,-0.03,0.02
51,2,-2,-11,3,,0.5,-0.5,-2.75,0.75,,0.0005,-0.0005,-0.00275,0.00075,,0.005,-0.005,-0.0275,0.0075
52,-5,-1,9,6,,-1.25,-0.25,2.25,1.5,,-0.00125,-0.00025,0.00225,0.0015,,-0.0125,-0.0025,0.0225,0.015
53,-5,7,10,-4,,-1.25,1.75,2.5,-1,,-0.00125,0.00175,0.0025,-0.001,,-0.0125,0.0175,0.025,-0.01
54,-5,-11,18,2,,-1.25,-2.75,4.5,0.5,,-0.00125,-0.00275,0.0045,0.0005,,-0.0125,-0.0275,0.045,0.005
55,-15,-9,16,4,,-3.75,-2.25,4,1,,-0.00375,-0.00225,0.004,0.001,,-0.0375,-0.0225,0.04,0.01
56,-10,3,25,-3,,-2.5,0.75,6.25,-0.75,,-0.0025,0.00075,0.00625,-0.00075,,-0.025,0.0075,0.0625,-0.0075
57,-8,-6,12,0,,-2,-1.5,3,0,,-0.002,-0.0015,0.003,0,,-0.02,-0.015,0.03,0
58,-7,-1,9,-9,,-1.75,-0.25,2.25,-2.25,,-0.00175,-0.00025,0.00225,-0.00225,,-0.0175,-0.0025,0.0225,-0.0225
59,0,-7,5,1,,0,-1.75,1.25,0.25,,0,-0.00175,0.00125,0.00025,,0,-0.0175,0.0125,0.0025
60,1,-6,-3,1,,0.25,-1.5,-0.75,0.25,,0.00025,-0.0015,-0.00075,0.00025,,0.0025,-0.015,-0.0075,0.0025
61,4,-2,2,-2,,1,-0.5,0.5,-0.5,,0.001,-0.0005,0.0005,-0.0005,,0.01,-0.005,0.005,-0.005
62,6,3,-4,-7,,1.5,0.75,-1,-1.75,,0.0015,0.00075,-0.001,-0.00175,,0.015,0.0075,-0.01,-0.0175
63,4,3,-8,-2,,1,0.75,-2,-0.5,,0.001,0.00075,-0.002,-0.0005,,0.01,0.0075,-0.02,-0.005
64,3,-1,-14,2,,0.75,-0.25,-3.5,0.5,,0.00075,-0.00025,-0.0035,0.0005,,0.0075,-0.0025,-0.035,0.005
65,10,7,-30,10,,2.5,1.75,-7.5,2.5,,0.0025,0.00175,-0.0075,0.0025,,0.025,0.0175,-0.075,0.025
66,-2,0,-17,9,,-0.5,0,-4.25,2.25,,-0.0005,0,-0.00425,0.00225,,-0.005,0,-0.0425,0.0225
67,9,1,-7,7,,2.25,0.25,-1.75,1.75,,0.00225,0.00025,-0.00175,0.00175,,0.0225,0.0025,-0.0175,0.0175
68,-2,2,5,-2,,-0.5,0.5,1.25,-0.5,,-0.0005,0.0005,0.00125,-0.0005,,-0.005,0.005,0.0125,-0.005
69,-10,1,7,0,,-2.5,0.25,1.75,0,,-0.0025,0.00025,0.00175,0,,-0.025,0.0025,0.0175,0
70,7,-10,5,-4,,1.75,-2.5,1.25,-1,,0.00175,-0.0025,0.00125,-0.001,,0.0175,-0.025,0.0125,-0.01
71,2,-2,8,1,,0.5,-0.5,2,0.25,,0.0005,-0.0005,0.002,0.00025,,0.005,-0.005,0.02,0.0025
72,-11,-2,28,8,,-2.75,-0.5,7,2,,-0.00275,-0.0005,0.007,0.002,,-0.0275,-0.005,0.07,0.02
73,-7,0,19,-6,,-1.75,0,4.75,-1.5,,-0.00175,0,0.00475,-0.0015,,-0.0175,0,0.0475,-0.015
74,-7,-5,18,-6,,-1.75,-1.25,4.5,-1.5,,-0.00175,-0.00125,0.0045,-0.0015,,-0.0175,-0.0125,0.045,-0.015
75,-2,1,9,-1,,-0.5,0.25,2.25,-0.25,,-0.0005,0.00025,0.00225,-0.00025,,-0.005,0.0025,0.0225,-0.0025
76,-2,-6,5,5,,-0.5,-1.5,1.25,1.25,,-0.0005,-0.0015,0.00125,0.00125,,-0.005,-0.015,0.0125,0.0125
77,-1,-2,2,2,,-0.25,-0.5,0.5,0.5,,-0.00025,-0.0005,0.0005,0.0005,,-0.0025,-0.005,0.005,0.005
78,11,-1,-16,4,,2.75,-0.25,-4,1,,0.00275,-0.00025,-0.004,0.001,,0.0275,-0.0025,-0.04,0.01
79,11,5,-5,5,,2.75,1.25,-1.25,1.25,,0.00275,0.00125,-0.00125,0.00125,,0.0275,0.0125,-0.0125,0.0125
80,11,10,-21,9,,2.75,2.5,-5.25,2.25,,0.00275,0.0025,-0.00525,0.00225,,0.0275,0.025,-0.0525,0.0225
81,7,6,-23,6,,1.75,1.5,-5.75,1.5,,0.00175,0.0015,-0.00575,0.0015,,0.0175,0.015,-0.0575,0.015
82,0,15,-16,4,,0,3.75,-4,1,,0,0.00375,-0.004,0.001,,0,0.0375,-0.04,0.01
83,3,4,-9,-9,,0.75,1,-2.25,-2.25,,0.00075,0.001,-0.00225,-0.00225,,0.0075,0.01,-0.0225,-0.0225
84,2,5,-5,8,,0.5,1.25,-1.25,2,,0.0005,0.00125,-0.00125,0.002,,0.005,0.0125,-0.0125,0.02
85,-8,5,-17,-5,,-2,1.25,-4.25,-1.25,,-0.002,0.00125,-0.00425,-0.00125,,-0.02,0.0125,-0.0425,-0.0125
86,-10,8,2,-2,,-2.5,2,0.5,-0.5,,-0.0025,0.002,0.0005,-0.0005,,-0.025,0.02,0.005,-0.005
87,-14,-4,-7,-10,,-3.5,-1,-1.75,-2.5,,-0.0035,-0.001,-0.00175,-0.0025,,-0.035,-0.01,-0.0175,-0.025
88,-10,-7,0,-6,,-2.5,-1.75,0,-1.5,,-0.0025,-0.00175,0,-0.0015,,-0.025,-0.0175,0,-0.015
89,-1,-1,20,-6,,-0.25,-0.25,5,-1.5,,-0.00025,-0.00025,0.005,-0.0015,,-0.0025,-0.0025,0.05,-0.015
90,-13,1,28,-14,,-3.25,0.25,7,-3.5,,-0.00325,0.00025,0.007,-0.0035,,-0.0325,0.0025,0.07,-0.035
91,-13,-3,17,-2,,-3.25,-0.75,4.25,-0.5,,-0.00325,-0.00075,0.00425,-0.0005,,-0.0325,-0.0075,0.0425,-0.005
92,-2,0,12,4,,-0.5,0,3,1,,-0.0005,0,0.003,0.001,,-0.005,0,0.03,0.01
93,-6,1,0,-9,,-1.5,0.25,0,-2.25,,-0.0015,0.00025,0,-0.00225,,-0.015,0.0025,0,-0.0225
94,4,0,-3,-6,,1,0,-0.75,-1.5,,0.001,0,-0.00075,-0.0015,,0.01,0,-0.0075,-0.015
95,11,-1,-7,3,,2.75,-0.25,-1.75,0.75,,0.00275,-0.00025,-0.00175,0.00075,,0.0275,-0.0025,-0.0175,0.0075
96,11,0,-3,8,,2.75,0,-0.75,2,,0.00275,0,-0.00075,0.002,,0.0275,0,-0.0075,0.02
97,9,9,-16,8,,2.25,2.25,-4,2,,0.00225,0.00225,-0.004,0.002,,0.0225,0.0225,-0.04,0.02
98,14,-4,-15,-1,,3.5,-1,-3.75,-0.25,,0.0035,-0.001,-0.00375,-0.00025,,0.035,-0.01,-0.0375,-0.0025
99,6,12,-17,1,,1.5,3,-4.25,0.25,,0.0015,0.003,-0.00425,0.00025,,0.015,0.03,-0.0425,0.0025
100,3,-6,-13,-6,,0.75,-1.5,-3.25,-1.5,,0.00075,-0.0015,-0.00325,-0.0015,,0.0075,-0.015,-0.0325,-0.015
101,3,-6,5,0,,0.75,-1.5,1.25,0,,0.00075,-0.0015,0.00125,0,,0.0075,-0.015,0.0125,0
102,-2,-1,4,16,,-0.5,-0.25,1,4,,-0.0005,-0.00025,0.001,0.004,,-0.005,-0.0025,0.01,0.04
103,-8,-9,10,-2,,-2,-2.25,2.5,-0.5,,-0.002,-0.00225,0.0025,-0.0005,,-0.02,-0.0225,0.025,-0.005
104,-2,-1,13,-4,,-0.5,-0.25,3.25,-1,,-0.0005,-0.00025,0.00325,-0.001,,-0.005,-0.0025,0.0325,-0.01
105,-15,1,6,-7,,-3.75,0.25,1.5,-1.75,,-0.00375,0.00025,0.0015,-0.00175,,-0.0375,0.0025,0.015,-0.0175
106,-4,2,12,-7,,-1,0.5,3,-1.75,,-0.001,0.0005,0.003,-0.00175,,-0.01,0.005,0.03,-0.0175
107,-1,6,35,-10,,-0.25,1.5,8.75,-2.5,,-0.00025,0.0015,0.00875,-0.0025,,-0.0025,0.015,0.0875,-0.025
108,-4,-1,23,2,,-1,-0.25,5.75,0.5,,-0.001,-0.00025,0.00575,0.0005,,-0.01,-0.0025,0.0575,0.005
109,2,3,23,-5,,0.5,0.75,5.75,-1.25,,0.0005,0.00075,0.00575,-0.00125,,0.005,0.0075,0.0575,-0.0125
110,-3,-6,6,-8,,-0.75,-1.5,1.5,-2,,-0.00075,-0.0015,0.0015,-0.002,,-0.0075,-0.015,0.015,-0.02
111,0,-2,8,-3,,0,-0.5,2,-0.75,,0,-0.0005,0.002,-0.00075,,0,-0.005,0.02,-0.0075
112,-2,3,-10,6,,-0.5,0.75,-2.5,1.5,,-0.0005,0.00075,-0.0025,0.0015,,-0.005,0.0075,-0.025,0.015
113,-2,-3,0,4,,-0.5,-0.75,0,1,,-0.0005,-0.00075,0,0.001,,-0.005,-0.0075,0,0.01
114,9,10,-30,0,,2.25,2.5,-7.5,0,,0.00225,0.0025,-0.0075,0,,0.0225,0.025,-0.075,0
115,6,3,-19,0,,1.5,0.75,-4.75,0,,0.0015,0.00075,-0.00475,0,,0.015,0.0075,-0.0475,0
116,2,3,-11,-2,,0.5,0.75,-2.75,-0.5,,0.0005,0.00075,-0.00275,-0.0005,,0.005,0.0075,-0.0275,-0.005
117,2,-3,-5,0,,0.5,-0.75,-1.25,0,,0.0005,-0.00075,-0.00125,0,,0.005,-0.0075,-0.0125,0
118,-6,-4,-7,-2,,-1.5,-1,-1.75,-0.5,,-0.0015,-0.001,-0.00175,-0.0005,,-0.015,-0.01,-0.0175,-0.005
119,-11,2,-1,-4,,-2.75,0.5,-0.25,-1,,-0.00275,0.0005,-0.00025,-0.001,,-0.0275,0.005,-0.0025,-0.01
120,-1,4,3,5,,-0.25,1,0.75,1.25,,-0.00025,0.001,0.00075,0.00125,,-0.0025,0.01,0.0075,0.0125
121,-2,2,-2,-4,,-0.5,0.5,-0.5,-1,,-0.0005,0.0005,-0.0005,-0.001,,-0.005,0.005,-0.005,-0.01
122,-8,-7,24,-13,,-2,-1.75,6,-3.25,,-0.002,-0.00175,0.006,-0.00325,,-0.02,-0.0175,0.06,-0.0325
123,-12,-5,16,-3,,-3,-1.25,4,-0.75,,-0.003,-0.00125,0.004,-0.00075,,-0.03,-0.0125,0.04,-0.0075
124,-6,-6,13,-5,,-1.5,-1.5,3.25,-1.25,,-0.0015,-0.0015,0.00325,-0.00125,,-0.015,-0.015,0.0325,-0.0125
125,-5,-7,17,-5,,-1.25,-1.75,4.25,-1.25,,-0.00125,-0.00175,0.00425,-0.00125,,-0.0125,-0.0175,0.0425,-0.0125
126,-7,-5,10,-8,,-1.75,-1.25,2.5,-2,,-0.00175,-0.00125,0.0025,-0.002,,-0.0175,-0.0125,0.025,-0.02
127,10,-1,1,5,,2.5,-0.25,0.25,1.25,,0.0025,-0.00025,0.00025,0.00125,,0.025,-0.0025,0.0025,0.0125
128,3,-8,-10,1,,0.75,-2,-2.5,0.25,,0.00075,-0.002,-0.0025,0.00025,,0.0075,-0.02,-0.025,0.0025
129,0,7,-5,-5,,0,1.75,-1.25,-1.25,,0,0.00175,-0.00125,-0.00125,,0,0.0175,-0.0125,-0.0125
130,9,3,-23,4,,2.25,0.75,-5.75,1,,0.00225,0.00075,-0.00575,0.001,,0.0225,0.0075,-0.0575,0.01
131,10,6,-15,6,,2.5,1.5,-3.75,1.5,,0.0025,0.0015,-0.00375,0.0015,,0.025,0.015,-0.0375,0.015
132,7,7,-19,-2,,1.75,1.75,-4.75,-0.5,,0.00175,0.00175,-0.00475,-0.0005,,0.0175,0.0175,-0.0475,-0.005
133,-1,3,-12,-3,,-0.25,0.75,-3,-0.75,,-0.00025,0.00075,-0.003,-0.00075,,-0.0025,0.0075,-0.03,-0.0075
134,-2,-3,-15,1,,-0.5,-0.75,-3.75,0.25,,-0.0005,-0.00075,-0.00375,0.00025,,-0.005,-0.0075,-0.0375,0.0025
135,-5,-3,3,-2,,-1.25,-0.75,0.75,-0.5,,-0.00125,-0.00075,0.00075,-0.0005,,-0.0125,-0.0075,0.0075,-0.005
136,-5,-2,1,1,,-1.25,-0.5,0.25,0.25,,-0.00125,-0.0005,0.00025,0.00025,,-0.0125,-0.005,0.0025,0.0025
137,-1,-4,10,-5,,-0.25,-1,2.5,-1.25,,-0.00025,-0.001,0.0025,-0.00125,,-0.0025,-0.01,0.025,-0.0125
138,-4,-5,9,0,,-1,-1.25,2.25,0,,-0.001,-0.00125,0.00225,0,,-0.01,-0.0125,0.0225,0
139,-9,-12,18,-15,,-2.25,-3,4.5,-3.75,,-0.00225,-0.003,0.0045,-0.00375,,-0.0225,-0.03,0.045,-0.0375
140,-7,-6,19,-4,,-1.75,-1.5,4.75,-1,,-0.00175,-0.0015,0.00475,-0.001,,-0.0175,-0.015,0.0475,-0.01
141,-7,-3,12,-2,,-1.75,-0.75,3,-0.5,,-0.00175,-0.00075,0.003,-0.0005,,-0.0175,-0.0075,0.03,-0.005
142,1,-2,15,-2,,0.25,-0.5,3.75,-0.5,,0.00025,-0.0005,0.00375,-0.0005,,0.0025,-0.005,0.0375,-0.005
143,-4,-1,7,-10,,-1,-0.25,1.75,-2.5,,-0.001,-0.00025,0.00175,-0.0025,,-0.01,-0.0025,0.0175,-0.025
144,3,0,1,-2,,0.75,0,0.25,-0.5,,0.00075,0,0.00025,-0.0005,,0.0075,0,0.0025,-0.005
145,16,3,3,3,,4,0.75,0.75,0.75,,0.004,0.00075,0.00075,0.00075,,0.04,0.0075,0.0075,0.0075
146,5,2,-4,-2,,1.25,0.5,-1,-0.5,,0.00125,0.0005,-0.001,-0.0005,,0.0125,0.005,-0.01,-0.005
147,16,7,-19,11,,4,1.75,-4.75,2.75,,0.004,0.00175,-0.00475,0.00275,,0.04,0.0175,-0.0475,0.0275
148,8,-2,-29,5,,2,-0.5,-7.25,1.25,,0.002,-0.0005,-0.00725,0.00125,,0.02,-0.005,-0.0725,0.0125
149,7,-5,-14,2,,1.75,-1.25,-3.5,0.5,,0.00175,-0.00125,-0.0035,0.0005,,0.0175,-0.0125,-0.035,0.005
150,6,7,-9,1,,1.5,1.75,-2.25,0.25,,0.0015,0.00175,-0.00225,0.00025,,0.015,0.0175,-0.0225,0.0025
151,8,-2,-7,3,,2,-0.5,-1.75,0.75,,0.002,-0.0005,-0.00175,0.00075,,0.02,-0.005,-0.0175,0.0075
152,-2,6,3,-5,,-0.5,1.5,0.75,-1.25,,-0.0005,0.0015,0.00075,-0.00125,,-0.005,0.015,0.0075,-0.0125
153,-1,-3,1,-5,,-0.25,-0.75,0.25,-1.25,,-0.00025,-0.00075,0.00025,-0.00125,,-0.0025,-0.0075,0.0025,-0.0125
154,-10,-6,6,3,,-2.5,-1.5,1.5,0.75,,-0.0025,-0.0015,0.0015,0.00075,,-0.025,-0.015,0.015,0.0075
155,-15,0,17,-14,,-3.75,0,4.25,-3.5,,-0.00375,0,0.00425,-0.0035,,-0.0375,0,0.0425,-0.035
156,-15,-1,11,-6,,-3.75,-0.25,2.75,-1.5,,-0.00375,-0.00025,0.00275,-0.0015,,-0.0375,-0.0025,0.0275,-0.015
157,-6,-12,16,-1,,-1.5,-3,4,-0.25,,-0.0015,-0.003,0.004,-0.00025,,-0.015,-0.03,0.04,-0.0025
158,-6,-4,5,-2,,-1.5,-1,1.25,-0.5,,-0.0015,-0.001,0.00125,-0.0005,,-0.015,-0.01,0.0125,-0.005
159,-4,-1,1,-14,,-1,-0.25,0.25,-3.5,,-0.001,-0.00025,0.00025,-0.0035,,-0.01,-0.0025,0.0025,-0.035
160,0,-4,2,0,,0,-1,0.5,0,,0,-0.001,0.0005,0,,0,-0.01,0.005,0
161,1,1,-1,-2,,0.25,0.25,-0.25,-0.5,,0.00025,0.00025,-0.00025,-0.0005,,0.0025,0.0025,-0.0025,-0.005
162,-2,4,-6,2,,-0.5,1,-1.5,0.5,,-0.0005,0.001,-0.0015,0.0005,,-0.005,0.01,-0.015,0.005
163,1,-1,-11,0,,0.25,-0.25,-2.75,0,,0.00025,-0.00025,-0.00275,0,,0.0025,-0.0025,-0.0275,0
164,14,1,-22,4,,3.5,0.25,-5.5,1,,0.0035,0.00025,-0.0055,0.001,,0.035,0.0025,-0.055,0.01
165,10,10,-20,-2,,2.5,2.5,-5,-0.5,,0.0025,0.0025,-0.005,-0.0005,,0.025,0.025,-0.05,-0.005
166,9,5,-4,-13,,2.25,1.25,-1,-3.25,,0.00225,0.00125,-0.001,-0.00325,,0.0225,0.0125,-0.01,-0.0325
167,3,12,-12,-1,,0.75,3,-3,-0.25,,0.00075,0.003,-0.003,-0.00025,,0.0075,0.03,-0.03,-0.0025
168,-1,-10,3,-11,,-0.25,-2.5,0.75,-2.75,,-0.00025,-0.0025,0.00075,-0.00275,,-0.0025,-0.025,0.0075,-0.0275
169,-8,-5,4,1,,-2,-1.25,1,0.25,,-0.002,-0.00125,0.001,0.00025,,-0.02,-0.0125,0.01,0.0025
170,-22,0,16,-6,,-5.5,0,4,-1.5,,-0.0055,0,0.004,-0.0015,,-0.055,0,0.04,-0.015
171,-5,2,10,-13,,-1.25,0.5,2.5,-3.25,,-0.00125,0.0005,0.0025,-0.00325,,-0.0125,0.005,0.025,-0.0325
172,-10,-3,21,-11,,-2.5,-0.75,5.25,-2.75,,-0.0025,-0.00075,0.00525,-0.00275,,-0.025,-0.0075,0.0525,-0.0275
173,-14,-3,14,-3,,-3.5,-0.75,3.5,-0.75,,-0.0035,-0.00075,0.0035,-0.00075,,-0.035,-0.0075,0.035,-0.0075
174,-4,-2,24,-6,,-1,-0.5,6,-1.5,,-0.001,-0.0005,0.006,-0.0015,,-0.01,-0.005,0.06,-0.015
175,-5,4,15,-7,,-1.25,1,3.75,-1.75,,-0.00125,0.001,0.00375,-0.00175,,-0.0125,0.01,0.0375,-0.0175
176,-6,-1,9,-3,,-1.5,-0.25,2.25,-0.75,,-0.0015,-0.00025,0.00225,-0.00075,,-0.015,-0.0025,0.0225,-0.0075
177,7,4,-3,-3,,1.75,1,-0.75,-0.75,,0.00175,0.001,-0.00075,-0.00075,,0.0175,0.01,-0.0075,-0.0075
178,3,0,-2,-3,,0.75,0,-0.5,-0.75,,0.00075,0,-0.0005,-0.00075,,0.0075,0,-0.005,-0.0075
179,0,-1,-5,-5,,0,-0.25,-1.25,-1.25,,0,-0.00025,-0.00125,-0.00125,,0,-0.0025,-0.0125,-0.0125
180,10,9,-10,-4,,2.5,2.25,-2.5,-1,,0.0025,0.00225,-0.0025,-0.001,,0.025,0.0225,-0.025,-0.01
181,11,8,-20,-2,,2.75,2,-5,-0.5,,0.00275,0.002,-0.005,-0.0005,,0.0275,0.02,-0.05,-0.005
182,13,8,-17,0,,3.25,2,-4.25,0,,0.00325,0.002,-0.00425,0,,0.0325,0.02,-0.0425,0
183,12,-1,-9,2,,3,-0.25,-2.25,0.5,,0.003,-0.00025,-0.00225,0.0005,,0.03,-0.0025,-0.0225,0.005
184,-2,-7,-12,2,,-0.5,-1.75,-3,0.5,,-0.0005,-0.00175,-0.003,0.0005,,-0.005,-0.0175,-0.03,0.005
185,0,0,-8,-2,,0,0,-2,-0.5,,0,0,-0.002,-0.0005,,0,0,-0.02,-0.005
186,-4,2,5,-1,,-1,0.5,1.25,-0.25,,-0.001,0.0005,0.00125,-0.00025,,-0.01,0.005,0.0125,-0.0025
187,-6,-7,0,-10,,-1.5,-1.75,0,-2.5,,-0.0015,-0.00175,0,-0.0025,,-0.015,-0.0175,0,-0.025
188,-9,-3,13,8,,-2.25,-0.75,3.25,2,,-0.00225,-0.00075,0.00325,0.002,,-0.0225,-0.0075,0.0325,0.02
189,-16,-6,15,-4,,-4,-1.5,3.75,-1,,-0.004,-0.0015,0.00375,-0.001,,-0.04,-0.015,0.0375,-0.01
190,-16,-11,11,-8,,-4,-2.75,2.75,-2,,-0.004,-0.00275,0.00275,-0.002,,-0.04,-0.0275,0.0275,-0.02
191,-11,-10,11,-15,,-2.75,-2.5,2.75,-3.75,,-0.00275,-0.0025,0.00275,-0.00375,,-0.0275,-0.025,0.0275,-0.0375
192,-5,-7,1,-5,,-1.25,-1.75,0.25,-1.25,,-0.00125,-0.00175,0.00025,-0.00125,,-0.0125,-0.0175,0.0025,-0.0125
193,-7,-2,0,-17,,-1.75,-0.5,0,-4.25,,-0.00175,-0.0005,0,-0.00425,,-0.0175,-0.005,0,-0.0425
194,-3,6,3,-8,,-0.75,1.5,0.75,-2,,-0.00075,0.0015,0.00075,-0.002,,-0.0075,0.015,0.0075,-0.02
195,7,0,-2,-5,,1.75,0,-0.5,-1.25,,0.00175,0,-0.0005,-0.00125,,0.0175,0,-0.005,-0.0125
196,4,0,-8,0,,1,0,-2,0,,0.001,0,-0.002,0,,0.01,0,-0.02,0
197,-1,7,-26,-10,,-0.25,1.75,-6.5,-2.5,,-0.00025,0.00175,-0.0065,-0.0025,,-0.0025,0.0175,-0.065,-0.025
198,10,9,-26,-6,,2.5,2.25,-6.5,-1.5,,0.0025,0.00225,-0.0065,-0.0015,,0.025,0.0225,-0.065,-0.015
199,10,5,-15,-4,,2.5,1.25,-3.75,-1,,0.0025,0.00125,-0.00375,-0.001,,0.025,0.0125,-0.0375,-0.01
200,5,7,-8,-11,,1.25,1.75,-2,-2.75,,0.00125,0.00175,-0.002,-0.00275,,0.0125,0.0175,-0.02,-0.0275
201,-1,-1,-18,-11,,-0.25,-0.25,-4.5,-2.75,,-0.00025,-0.00025,-0.0045,-0.00275,,-0.0025,-0.0025,-0.045,-0.0275
202,-7,0,-3,-5,,-1.75,0,-0.75,-1.25,,-0.00175,0,-0.00075,-0.00125,,-0.0175,0,-0.0075,-0.0125
203,-7,-2,2,-9,,-1.75,-0.5,0.5,-2.25,,-0.00175,-0.0005,0.0005,-0.00225,,-0.0175,-0.005,0.005,-0.0225
204,-7,-8,10,-5,,-1.75,-2,2.5,-1.25,,-0.00175,-0.002,0.0025,-0.00125,,-0.0175,-0.02,0.025,-0.0125
205,-10,-7,19,-1,,-2.5,-1.75,4.75,-0.25,,-0.0025,-0.00175,0.00475,-0.00025,,-0.025,-0.0175,0.0475,-0.0025
206,-11,-2,14,-5,,-2.75,-0.5,3.5,-1.25,,-0.00275,-0.0005,0.0035,-0.00125,,-0.0275,-0.005,0.035,-0.0125
207,-15,-5,19,-6,,-3.75,-1.25,4.75,-1.5,,-0.00375,-0.00125,0.00475,-0.0015,,-0.0375,-0.0125,0.0475,-0.015
208,-5,1,15,-8,,-1.25,0.25,3.75,-2,,-0.00125,0.00025,0.00375,-0.002,,-0.0125,0.0025,0.0375,-0.02
209,0,-1,11,-5,,0,-0.25,2.75,-1.25,,0,-0.00025,0.00275,-0.00125,,0,-0.0025,0.0275,-0.0125
210,3,2,8,-9,,0.75,0.5,2,-2.25,,0.00075,0.0005,0.002,-0.00225,,0.0075,0.005,0.02,-0.0225
211,-1,3,-3,-1,,-0.25,0.75,-0.75,-0.25,,-0.00025,0.00075,-0.00075,-0.00025,,-0.0025,0.0075,-0.0075,-0.0025
212,14,-5,-9,1,,3.5,-1.25,-2.25,0.25,,0.0035,-0.00125,-0.00225,0.00025,,0.035,-0.0125,-0.0225,0.0025
213,14,2,-3,-11,,3.5,0.5,-0.75,-2.75,,0.0035,0.0005,-0.00075,-0.00275,,0.035,0.005,-0.0075,-0.0275
214,17,22,-14,5,,4.25,5.5,-3.5,1.25,,0.00425,0.0055,-0.0035,0.00125,,0.0425,0.055,-0.035,0.0125
215,5,5,-16,1,,1.25,1.25,-4,0.25,,0.00125,0.00125,-0.004,0.00025,,0.0125,0.0125,-0.04,0.0025
216,5,2,-9,0,,1.25,0.5,-2.25,0,,0.00125,0.0005,-0.00225,0,,0.0125,0.005,-0.0225,0
217,-6,6,-10,-1,,-1.5,1.5,-2.5,-0.25,,-0.0015,0.0015,-0.0025,-0.00025,,-0.015,0.015,-0.025,-0.0025
218,-2,-7,-2,-6,,-0.5,-1.75,-0.5,-1.5,,-0.0005,-0.00175,-0.0005,-0.0015,,-0.005,-0.0175,-0.005,-0.015
219,-8,1,8,-10,,-2,0.25,2,-2.5,,-0.002,0.00025,0.002,-0.0025,,-0.02,0.0025,0.02,-0.025
220,-12,-3,13,-8,,-3,-0.75,3.25,-2,,-0.003,-0.00075,0.00325,-0.002,,-0.03,-0.0075,0.0325,-0.02
221,-12,9,11,-17,,-3,2.25,2.75,-4.25,,-0.003,0.00225,0.00275,-0.00425,,-0.03,0.0225,0.0275,-0.0425
222,-16,8,20,-5,,-4,2,5,-1.25,,-0.004,0.002,0.005,-0.00125,,-0.04,0.02,0.05,-0.0125
223,-19,-7,18,-10,,-4.75,-1.75,4.5,-2.5,,-0.00475,-0.00175,0.0045,-0.0025,,-0.0475,-0.0175,0.045,-0.025
224,-20,-4,7,-9,,-5,-1,1.75,-2.25,,-0.005,-0.001,0.00175,-0.00225,,-0.05,-0.01,0.0175,-0.0225
225,-7,5,3,-1,,-1.75,1.25,0.75,-0.25,,-0.00175,0.00125,0.00075,-0.00025,,-0.0175,0.0125,0.0075,-0.0025
226,5,-3,8,-10,,1.25,-0.75,2,-2.5,,0.00125,-0.00075,0.002,-0.0025,,0.0125,-0.0075,0.02,-0.025
227,4,-5,1,-15,,1,-1.25,0.25,-3.75,,0.001,-0.00125,0.00025,-0.00375,,0.01,-0.0125,0.0025,-0.0375
228,9,-2,-4,-2,,2.25,-0.5,-1,-0.5,,0.00225,-0.0005,-0.001,-0.0005,,0.0225,-0.005,-0.01,-0.005
229,8,1,-4,2,,2,0.25,-1,0.5,,0.002,0.00025,-0.001,0.0005,,0.02,0.0025,-0.01,0.005
230,10,3,-14,-1,,2.5,0.75,-3.5,-0.25,,0.0025,0.00075,-0.0035,-0.00025,,0.025,0.0075,-0.035,-0.0025
231,8,-9,-32,2,,2,-2.25,-8,0.5,,0.002,-0.00225,-0.008,0.0005,,0.02,-0.0225,-0.08,0.005
232,4,8,-13,2,,1,2,-3.25,0.5,,0.001,0.002,-0.00325,0.0005,,0.01,0.02,-0.0325,0.005
233,11,1,-11,3,,2.75,0.25,-2.75,0.75,,0.00275,0.00025,-0.00275,0.00075,,0.0275,0.0025,-0.0275,0.0075
234,-3,3,-6,2,,-0.75,0.75,-1.5,0.5,,-0.00075,0.00075,-0.0015,0.0005,,-0.0075,0.0075,-0.015,0.005
235,-10,-4,0,-1,,-2.5,-1,0,-0.25,,-0.0025,-0.001,0,-0.00025,,-0.025,-0.01,0,-0.0025
236,-2,1,19,-2,,-0.5,0.25,4.75,-0.5,,-0.0005,0.00025,0.00475,-0.0005,,-0.005,0.0025,0.0475,-0.005
237,-5,0,7,-2,,-1.25,0,1.75,-0.5,,-0.00125,0,0.00175,-0.0005,,-0.0125,0,0.0175,-0.005
238,-6,-7,17,-4,,-1.5,-1.75,4.25,-1,,-0.0015,-0.00175,0.00425,-0.001,,-0.015,-0.0175,0.0425,-0.01
239,-12,-4,17,-11,,-3,-1,4.25,-2.75,,-0.003,-0.001,0.00425,-0.00275,,-0.03,-0.01,0.0425,-0.0275
240,-16,4,4,-4,,-4,1,1,-1,,-0.004,0.001,0.001,-0.001,,-0.04,0.01,0.01,-0.01
241,-3,8,7,-12,,-0.75,2,1.75,-3,,-0.00075,0.002,0.00175,-0.003,,-0.0075,0.02,0.0175,-0.03
242,-4,3,16,-21,,-1,0.75,4,-5.25,,-0.001,0.00075,0.004,-0.00525,,-0.01,0.0075,0.04,-0.0525
243,-2,-5,22,-3,,-0.5,-1.25,5.5,-0.75,,-0.0005,-0.00125,0.0055,-0.00075,,-0.005,-0.0125,0.055,-0.0075
244,5,-3,6,-11,,1.25,-0.75,1.5,-2.75,,0.00125,-0.00075,0.0015,-0.00275,,0.0125,-0.0075,0.015,-0.0275
245,1,4,-11,-4,,0.25,1,-2.75,-1,,0.00025,0.001,-0.00275,-0.001,,0.0025,0.01,-0.0275,-0.01
246,3,9,-6,3,,0.75,2.25,-1.5,0.75,,0.00075,0.00225,-0.0015,0.00075,,0.0075,0.0225,-0.015,0.0075
247,4,3,-20,-1,,1,0.75,-5,-0.25,,0.001,0.00075,-0.005,-0.00025,,0.01,0.0075,-0.05,-0.0025
248,5,7,-16,3,,1.25,1.75,-4,0.75,,0.00125,0.00175,-0.004,0.00075,,0.0125,0.0175,-0.04,0.0075
249,6,10,-16,-12,,1.5,2.5,-4,-3,,0.0015,0.0025,-0.004,-0.003,,0.015,0.025,-0.04,-0.03
250,6,-2,-11,3,,1.5,-0.5,-2.75,0.75,,0.0015,-0.0005,-0.00275,0.00075,,0.015,-0.005,-0.0275,0.0075
251,-1,2,-4,4,,-0.25,0.5,-1,1,,-0.00025,0.0005,-0.001,0.001,,-0.0025,0.005,-0.01,0.01
252,-11,5,-2,-6,,-2.75,1.25,-0.5,-1.5,,-0.00275,0.00125,-0.0005,-0.0015,,-0.0275,0.0125,-0.005,-0.015
253,-4,-3,11,-6,,-1,-0.75,2.75,-1.5,,-0.001,-0.00075,0.00275,-0.0015,,-0.01,-0.0075,0.0275,-0.015
254,-10,-1,12,-6,,-2.5,-0.25,3,-1.5,,-0.0025,-0.00025,0.003,-0.0015,,-0.025,-0.0025,0.03,-0.015
255,-6,-9,26,-4,,-1.5,-2.25,6.5,-1,,-0.0015,-0.00225,0.0065,-0.001,,-0.015,-0.0225,0.065,-0.01
256,-6,-5,29,-9,,-1.5,-1.25,7.25,-2.25,,-0.0015,-0.00125,0.00725,-0.00225,,-0.015,-0.0125,0.0725,-0.0225
257,-10,-8,22,-5,,-2.5,-2,5.5,-1.25,,-0.0025,-0.002,0.0055,-0.00125,,-0.025,-0.02,0.055,-0.0125
258,-5,-8,18,-5,,-1.25,-2,4.5,-1.25,,-0.00125,-0.002,0.0045,-0.00125,,-0.0125,-0.02,0.045,-0.0125
259,2,5,0,-8,,0.5,1.25,0,-2,,0.0005,0.00125,0,-0.002,,0.005,0.0125,0,-0.02
260,-2,1,5,-9,,-0.5,0.25,1.25,-2.25,,-0.0005,0.00025,0.00125,-0.00225,,-0.005,0.0025,0.0125,-0.0225
261,15,-3,-3,0,,3.75,-0.75,-0.75,0,,0.00375,-0.00075,-0.00075,0,,0.0375,-0.0075,-0.0075,0
262,14,-6,-16,-1,,3.5,-1.5,-4,-0.25,,0.0035,-0.0015,-0.004,-0.00025,,0.035,-0.015,-0.04,-0.0025
263,16,-5,-19,5,,4,-1.25,-4.75,1.25,,0.004,-0.00125,-0.00475,0.00125,,0.04,-0.0125,-0.0475,0.0125
264,10,5,-24,-1,,2.5,1.25,-6,-0.25,,0.0025,0.00125,-0.006,-0.00025,,0.025,0.0125,-0.06,-0.0025
265,9,-1,-29,-4,,2.25,-0.25,-7.25,-1,,0.00225,-0.00025,-0.00725,-0.001,,0.0225,-0.0025,-0.0725,-0.01
266,6,8,-22,2,,1.5,2,-5.5,0.5,,0.0015,0.002,-0.0055,0.0005,,0.015,0.02,-0.055,0.005
267,0,-2,-16,-5,,0,-0.5,-4,-1.25,,0,-0.0005,-0.004,-0.00125,,0,-0.005,-0.04,-0.0125
268,-4,-9,3,-9,,-1,-2.25,0.75,-2.25,,-0.001,-0.00225,0.00075,-0.00225,,-0.01,-0.0225,0.0075,-0.0225
269,-9,-2,6,-3,,-2.25,-0.5,1.5,-0.75,,-0.00225,-0.0005,0.0015,-0.00075,,-0.0225,-0.005,0.015,-0.0075
270,-6,-2,5,0,,-1.5,-0.5,1.25,0,,-0.0015,-0.0005,0.00125,0,,-0.015,-0.005,0.0125,0
271,-11,-5,15,-6,,-2.75,-1.25,3.75,-1.5,,-0.00275,-0.00125,0.00375,-0.0015,,-0.0275,-0.0125,0.0375,-0.015
272,-15,-2,28,-10,,-3.75,-0.5,7,-2.5,,-0.00375,-0.0005,0.007,-0.0025,,-0.0375,-0.005,0.07,-0.025
273,-19,1,28,-9,,-4.75,0.25,7,-2.25,,-0.00475,0.00025,0.007,-0.00225,,-0.0475,0.0025,0.07,-0.0225
274,-5,-3,16,-4,,-1.25,-0.75,4,-1,,-0.00125,-0.00075,0.004,-0.001,,-0.0125,-0.0075,0.04,-0.01
275,-4,-9,7,1,,-1,-2.25,1.75,0.25,,-0.001,-0.00225,0.00175,0.00025,,-0.01,-0.0225,0.0175,0.0025
276,3,-2,5,-14,,0.75,-0.5,1.25,-3.5,,0.00075,-0.0005,0.00125,-0.0035,,0.0075,-0.005,0.0125,-0.035
277,-5,0,-4,-6,,-1.25,0,-1,-1.5,,-0.00125,0,-0.001,-0.0015,,-0.0125,0,-0.01,-0.015
278,7,-3,-4,-4,,1.75,-0.75,-1,-1,,0.00175,-0.00075,-0.001,-0.001,,0.0175,-0.0075,-0.01,-0.01
279,4,-4,-15,-1,,1,-1,-3.75,-0.25,,0.001,-0.001,-0.00375,-0.00025,,0.01,-0.01,-0.0375,-0.0025
280,17,9,-23,-4,,4.25,2.25,-5.75,-1,,0.00425,0.00225,-0.00575,-0.001,,0.0425,0.0225,-0.0575,-0.01
281,21,7,-17,-9,,5.25,1.75,-4.25,-2.25,,0.00525,0.00175,-0.00425,-0.00225,,0.0525,0.0175,-0.0425,-0.0225
282,16,-3,-20,7,,4,-0.75,-5,1.75,,0.004,-0.00075,-0.005,0.00175,,0.04,-0.0075,-0.05,0.0175
283,6,7,-8,0,,1.5,1.75,-2,0,,0.0015,0.00175,-0.002,0,,0.015,0.0175,-0.02,0
284,2,4,-16,-3,,0.5,1,-4,-0.75,,0.0005,0.001,-0.004,-0.00075,,0.005,0.01,-0.04,-0.0075
285,2,-1,-6,-6,,0.5,-0.25,-1.5,-1.5,,0.0005,-0.00025,-0.0015,-0.0015,,0.005,-0.0025,-0.015,-0.015
286,-5,-11,11,-1,,-1.25,-2.75,2.75,-0.25,,-0.00125,-0.00275,0.00275,-0.00025,,-0.0125,-0.0275,0.0275,-0.0025
287,-11,-2,9,-12,,-2.75,-0.5,2.25,-3,,-0.00275,-0.0005,0.00225,-0.003,,-0.0275,-0.005,0.0225,-0.03
288,-20,3,15,-15,,-5,0.75,3.75,-3.75,,-0.005,0.00075,0.00375,-0.00375,,-0.05,0.0075,0.0375,-0.0375
289,-15,-12,17,-17,,-3.75,-3,4.25,-4.25,,-0.00375,-0.003,0.00425,-0.00425,,-0.0375,-0.03,0.0425,-0.0425
290,2,-2,10,-35,,0.5,-0.5,2.5,-8.75,,0.0005,-0.0005,0.0025,-0.00875,,0.005,-0.005,0.025,-0.0875
291,7,-6,0,-120,,1.75,-1.5,0,-30,,0.00175,-0.0015,0,-0.03,,0.0175,-0.015,0,-0.3
292,-6,-9,-16,-71,,-1.5,-2.25,-4,-17.75,,-0.0015,-0.00225,-0.004,-0.01775,,-0.015,-0.0225,-0.04,-0.1775
293,-4,-8,-12,1,,-1,-2,-3,0.25,,-0.001,-0.002,-0.003,0.00025,,-0.01,-0.02,-0.03,0.0025
294,4,9,-3,28,,1,2.25,-0.75,7,,0.001,0.00225,-0.00075,0.007,,0.01,0.0225,-0.0075,0.07
295,-2,-2,-15,14,,-0.5,-0.5,-3.75,3.5,,-0.0005,-0.0005,-0.00375,0.0035,,-0.005,-0.005,-0.0375,0.035
296,-2,-4,14,-4,,-0.5,-1,3.5,-1,,-0.0005,-0.001,0.0035,-0.001,,-0.005,-0.01,0.035,-0.01
297,16,-3,-22,0,,4,-0.75,-5.5,0,,0.004,-0.00075,-0.0055,0,,0.04,-0.0075,-0.055,0
298,9,8,-28,17,,2.25,2,-7,4.25,,0.00225,0.002,-0.007,0.00425,,0.0225,0.02,-0.07,0.0425
299,0,10,-24,-5,,0,2.5,-6,-1.25,,0,0.0025,-0.006,-0.00125,,0,0.025,-0.06,-0.0125
300,2,1,-14,-4,,0.5,0.25,-3.5,-1,,0.0005,0.00025,-0.0035,-0.001,,0.005,0.0025,-0.035,-0.01
301,1,-2,-4,-9,,0.25,-0.5,-1,-2.25,,0.00025,-0.0005,-0.001,-0.00225,,0.0025,-0.005,-0.01,-0.0225
302,-13,-10,6,2,,-3.25,-2.5,1.5,0.5,,-0.00325,-0.0025,0.0015,0.0005,,-0.0325,-0.025,0.015,0.005
303,-4,-3,6,-2,,-1,-0.75,1.5,-0.5,,-0.001,-0.00075,0.0015,-0.0005,,-0.01,-0.0075,0.015,-0.005
304,-2,2,7,-8,,-0.5,0.5,1.75,-2,,-0.0005,0.0005,0.00175,-0.002,,-0.005,0.005,0.0175,-0.02
305,-13,-5,22,-12,,-3.25,-1.25,5.5,-3,,-0.00325,-0.00125,0.0055,-0.003,,-0.0325,-0.0125,0.055,-0.03
306,-11,-8,19,-3,,-2.75,-2,4.75,-0.75,,-0.00275,-0.002,0.00475,-0.00075,,-0.0275,-0.02,0.0475,-0.0075
307,-13,-6,11,-2,,-3.25,-1.5,2.75,-0.5,,-0.00325,-0.0015,0.00275,-0.0005,,-0.0325,-0.015,0.0275,-0.005
308,3,-7,11,0,,0.75,-1.75,2.75,0,,0.00075,-0.00175,0.00275,0,,0.0075,-0.0175,0.0275,0
309,-12,-11,5,-3,,-3,-2.75,1.25,-0.75,,-0.003,-0.00275,0.00125,-0.00075,,-0.03,-0.0275,0.0125,-0.0075
310,5,-3,-1,-4,,1.25,-0.75,-0.25,-1,,0.00125,-0.00075,-0.00025,-0.001,,0.0125,-0.0075,-0.0025,-0.01
311,8,4,-7,-1,,2,1,-1.75,-0.25,,0.002,0.001,-0.00175,-0.00025,,0.02,0.01,-0.0175,-0.0025
312,3,10,-1,-12,,0.75,2.5,-0.25,-3,,0.00075,0.0025,-0.00025,-0.003,,0.0075,0.025,-0.0025,-0.03
313,6,0,-5,-8,,1.5,0,-1.25,-2,,0.0015,0,-0.00125,-0.002,,0.015,0,-0.0125,-0.02
314,3,5,-28,10,,0.75,1.25,-7,2.5,,0.00075,0.00125,-0.007,0.0025,,0.0075,0.0125,-0.07,0.025
315,11,5,-12,-3,,2.75,1.25,-3,-0.75,,0.00275,0.00125,-0.003,-0.00075,,0.0275,0.0125,-0.03,-0.0075
316,2,0,-14,-7,,0.5,0,-3.5,-1.75,,0.0005,0,-0.0035,-0.00175,,0.005,0,-0.035,-0.0175
317,-2,5,-2,-61,,-0.5,1.25,-0.5,-15.25,,-0.0005,0.00125,-0.0005,-0.01525,,-0.005,0.0125,-0.005,-0.1525
318,4,5,-9,-35,,1,1.25,-2.25,-8.75,,0.001,0.00125,-0.00225,-0.00875,,0.01,0.0125,-0.0225,-0.0875
319,-2,10,0,-20,,-0.5,2.5,0,-5,,-0.0005,0.0025,0,-0.005,,-0.005,0.025,0,-0.05
320,-5,-3,15,-5,,-1.25,-0.75,3.75,-1.25,,-0.00125,-0.00075,0.00375,-0.00125,,-0.0125,-0.0075,0.0375,-0.0125
321,-13,0,-1,-26,,-3.25,0,-0.25,-6.5,,-0.00325,0,-0.00025,-0.0065,,-0.0325,0,-0.0025,-0.065
322,-14,5,14,1,,-3.5,1.25,3.5,0.25,,-0.0035,0.00125,0.0035,0.00025,,-0.035,0.0125,0.035,0.0025
323,-10,-12,17,-4,,-2.5,-3,4.25,-1,,-0.0025,-0.003,0.00425,-0.001,,-0.025,-0.03,0.0425,-0.01
324,-8,-3,14,11,,-2,-0.75,3.5,2.75,,-0.002,-0.00075,0.0035,0.00275,,-0.02,-0.0075,0.035,0.0275
325,-5,0,10,-2,,-1.25,0,2.5,-0.5,,-0.00125,0,0.0025,-0.0005,,-0.0125,0,0.025,-0.005
326,0,-4,16,8,,0,-1,4,2,,0,-0.001,0.004,0.002,,0,-0.01,0.04,0.02
327,1,-2,14,-1,,0.25,-0.5,3.5,-0.25,,0.00025,-0.0005,0.0035,-0.00025,,0.0025,-0.005,0.035,-0.0025
328,2,6,11,-4,,0.5,1.5,2.75,-1,,0.0005,0.0015,0.00275,-0.001,,0.005,0.015,0.0275,-0.01
329,4,-4,-27,5,,1,-1,-6.75,1.25,,0.001,-0.001,-0.00675,0.00125,,0.01,-0.01,-0.0675,0.0125
330,5,6,-34,15,,1.25,1.5,-8.5,3.75,,0.00125,0.0015,-0.0085,0.00375,,0.0125,0.015,-0.085,0.0375
331,8,4,-23,6,,2,1,-5.75,1.5,,0.002,0.001,-0.00575,0.0015,,0.02,0.01,-0.0575,0.015
332,12,-2,-24,7,,3,-0.5,-6,1.75,,0.003,-0.0005,-0.006,0.00175,,0.03,-0.005,-0.06,0.0175
333,4,1,-31,6,,1,0.25,-7.75,1.5,,0.001,0.00025,-0.00775,0.0015,,0.01,0.0025,-0.0775,0.015
334,5,-2,-2,2,,1.25,-0.5,-0.5,0.5,,0.00125,-0.0005,-0.0005,0.0005,,0.0125,-0.005,-0.005,0.005
335,-2,4,8,-2,,-0.5,1,2,-0.5,,-0.0005,0.001,0.002,-0.0005,,-0.005,0.01,0.02,-0.005
336,-9,-9,4,-2,,-2.25,-2.25,1,-0.5,,-0.00225,-0.00225,0.001,-0.0005,,-0.0225,-0.0225,0.01,-0.005
337,-18,-7,14,-4,,-4.5,-1.75,3.5,-1,,-0.0045,-0.00175,0.0035,-0.001,,-0.045,-0.0175,0.035,-0.01
338,-16,-3,25,-3,,-4,-0.75,6.25,-0.75,,-0.004,-0.00075,0.00625,-0.00075,,-0.04,-0.0075,0.0625,-0.0075
339,-7,-10,21,-5,,-1.75,-2.5,5.25,-1.25,,-0.00175,-0.0025,0.00525,-0.00125,,-0.0175,-0.025,0.0525,-0.0125
340,-7,-9,19,-4,,-1.75,-2.25,4.75,-1,,-0.00175,-0.00225,0.00475,-0.001,,-0.0175,-0.0225,0.0475,-0.01
341,-9,-7,14,-6,,-2.25,-1.75,3.5,-1.5,,-0.00225,-0.00175,0.0035,-0.0015,,-0.0225,-0.0175,0.035,-0.015
342,-1,0,12,0,,-0.25,0,3,0,,-0.00025,0,0.003,0,,-0.0025,0,0.03,0
343,0,-4,4,-4,,0,-1,1,-1,,0,-0.001,0.001,-0.001,,0,-0.01,0.01,-0.01
344,4,6,5,2,,1,1.5,1.25,0.5,,0.001,0.0015,0.00125,0.0005,,0.01,0.015,0.0125,0.005
345,1,3,14,-5,,0.25,0.75,3.5,-1.25,,0.00025,0.00075,0.0035,-0.00125,,0.0025,0.0075,0.035,-0.0125
346,0,-2,9,-27,,0,-0.5,2.25,-6.75,,0,-0.0005,0.00225,-0.00675,,0,-0.005,0.0225,-0.0675
347,2,-3,-29,2,,0.5,-0.75,-7.25,0.5,,0.0005,-0.00075,-0.00725,0.0005,,0.005,-0.0075,-0.0725,0.005
348,9,4,-39,3,,2.25,1,-9.75,0.75,,0.00225,0.001,-0.00975,0.00075,,0.0225,0.01,-0.0975,0.0075
349,6,-2,-26,5,,1.5,-0.5,-6.5,1.25,,0.0015,-0.0005,-0.0065,0.00125,,0.015,-0.005,-0.065,0.0125
350,-4,7,-16,10,,-1,1.75,-4,2.5,,-0.001,0.00175,-0.004,0.0025,,-0.01,0.0175,-0.04,0.025
351,-2,-3,26,11,,-0.5,-0.75,6.5,2.75,,-0.0005,-0.00075,0.0065,0.00275,,-0.005,-0.0075,0.065,0.0275
352,2,-2,-23,-4,,0.5,-0.5,-5.75,-1,,0.0005,-0.0005,-0.00575,-0.001,,0.005,-0.005,-0.0575,-0.01
353,-10,-4,100,-1,,-2.5,-1,25,-0.25,,-0.0025,-0.001,0.025,-0.00025,,-0.025,-0.01,0.25,-0.0025
354,-8,2,43,-15,,-2,0.5,10.75,-3.75,,-0.002,0.0005,0.01075,-0.00375,,-0.02,0.005,0.1075,-0.0375
355,-18,-8,-51,-15,,-4.5,-2,-12.75,-3.75,,-0.0045,-0.002,-0.01275,-0.00375,,-0.045,-0.02,-0.1275,-0.0375
356,-9,0,-13,-13,,-2.25,0,-3.25,-3.25,,-0.00225,0,-0.00325,-0.00325,,-0.0225,0,-0.0325,-0.0325
357,-10,-14,-8,-17,,-2.5,-3.5,-2,-4.25,,-0.0025,-0.0035,-0.002,-0.00425,,-0.025,-0.035,-0.02,-0.0425
358,2,-2,-43,2,,0.5,-0.5,-10.75,0.5,,0.0005,-0.0005,-0.01075,0.0005,,0.005,-0.005,-0.1075,0.005
359,-5,-7,-165,-2,,-1.25,-1.75,-41.25,-0.5,,-0.00125,-0.00175,-0.04125,-0.0005,,-0.0125,-0.0175,-0.4125,-0.005
360,-8,-1,-13,13,,-2,-0.25,-3.25,3.25,,-0.002,-0.00025,-0.00325,0.00325,,-0.02,-0.0025,-0.0325,0.0325
361,4,8,78,4,,1,2,19.5,1,,0.001,0.002,0.0195,0.001,,0.01,0.02,0.195,0.01
362,15,5,37,3,,3.75,1.25,9.25,0.75,,0.00375,0.00125,0.00925,0.00075,,0.0375,0.0125,0.0925,0.0075
363,1,-1,-8,3,,0.25,-0.25,-2,0.75,,0.00025,-0.00025,-0.002,0.00075,,0.0025,-0.0025,-0.02,0.0075
364,6,0,-30,-4,,1.5,0,-7.5,-1,,0.0015,0,-0.0075,-0.001,,0.015,0,-0.075,-0.01
365,6,-2,-27,-4,,1.5,-0.5,-6.75,-1,,0.0015,-0.0005,-0.00675,-0.001,,0.015,-0.005,-0.0675,-0.01
366,8,0,27,-1,,2,0,6.75,-0.25,,0.002,0,0.00675,-0.00025,,0.02,0,0.0675,-0.0025
367,-3,1,234,-2,,-0.75,0.25,58.5,-0.5,,-0.00075,0.00025,0.0585,-0.0005,,-0.0075,0.0025,0.585,-0.005
368,4,-7,-104,4,,1,-1.75,-26,1,,0.001,-0.00175,-0.026,0.001,,0.01,-0.0175,-0.26,0.01
369,-7,-15,-99,1,,-1.75,-3.75,-24.75,0.25,,-0.00175,-0.00375,-0.02475,0.00025,,-0.0175,-0.0375,-0.2475,0.0025
370,-15,-2,-15,-23,,-3.75,-0.5,-3.75,-5.75,,-0.00375,-0.0005,-0.00375,-0.00575,,-0.0375,-0.005,-0.0375,-0.0575
371,-21,-5,6,-13,,-5.25,-1.25,1.5,-3.25,,-0.00525,-0.00125,0.0015,-0.00325,,-0.0525,-0.0125,0.015,-0.0325
372,-11,-14,43,6,,-2.75,-3.5,10.75,1.5,,-0.00275,-0.0035,0.01075,0.0015,,-0.0275,-0.035,0.1075,0.015
373,-14,0,1,5,,-3.5,0,0.25,1.25,,-0.0035,0,0.00025,0.00125,,-0.035,0,0.0025,0.0125
374,-4,-7,1,-8,,-1,-1.75,0.25,-2,,-0.001,-0.00175,0.00025,-0.002,,-0.01,-0.0175,0.0025,-0.02
375,-1,-15,-16,5,,-0.25,-3.75,-4,1.25,,-0.00025,-0.00375,-0.004,0.00125,,-0.0025,-0.0375,-0.04,0.0125
376,-1,-4,-14,16,,-0.25,-1,-3.5,4,,-0.00025,-0.001,-0.0035,0.004,,-0.0025,-0.01,-0.035,0.04
377,-3,1,30,-2,,-0.75,0.25,7.5,-0.5,,-0.00075,0.00025,0.0075,-0.0005,,-0.0075,0.0025,0.075,-0.005
378,-4,-8,41,0,,-1,-2,10.25,0,,-0.001,-0.002,0.01025,0,,-0.01,-0.02,0.1025,0
379,3,-4,-17,-22,,0.75,-1,-4.25,-5.5,,0.00075,-0.001,-0.00425,-0.0055,,0.0075,-0.01,-0.0425,-0.055
380,11,5,-36,-23,,2.75,1.25,-9,-5.75,,0.00275,0.00125,-0.009,-0.00575,,0.0275,0.0125,-0.09,-0.0575
381,-1,4,-24,2,,-0.25,1,-6,0.5,,-0.00025,0.001,-0.006,0.0005,,-0.0025,0.01,-0.06,0.005
382,-2,5,17,18,,-0.5,1.25,4.25,4.5,,-0.0005,0.00125,0.00425,0.0045,,-0.005,0.0125,0.0425,0.045
383,1,-3,-18,21,,0.25,-0.75,-4.5,5.25,,0.00025,-0.00075,-0.0045,0.00525,,0.0025,-0.0075,-0.045,0.0525
384,1,-2,-34,15,,0.25,-0.5,-8.5,3.75,,0.00025,-0.0005,-0.0085,0.00375,,0.0025,-0.005,-0.085,0.0375
385,-3,-6,-26,13,,-0.75,-1.5,-6.5,3.25,,-0.00075,-0.0015,-0.0065,0.00325,,-0.0075,-0.015,-0.065,0.0325
386,-5,-4,-17,-29,,-1.25,-1,-4.25,-7.25,,-0.00125,-0.001,-0.00425,-0.00725,,-0.0125,-0.01,-0.0425,-0.0725
387,-10,-8,-2,-35,,-2.5,-2,-0.5,-8.75,,-0.0025,-0.002,-0.0005,-0.00875,,-0.025,-0.02,-0.005,-0.0875
388,-17,-11,-1,-13,,-4.25,-2.75,-0.25,-3.25,,-0.00425,-0.00275,-0.00025,-0.00325,,-0.0425,-0.0275,-0.0025,-0.0325
389,-19,-9,-1,-7,,-4.75,-2.25,-0.25,-1.75,,-0.00475,-0.00225,-0.00025,-0.00175,,-0.0475,-0.0225,-0.0025,-0.0175
390,-11,-10,22,17,,-2.75,-2.5,5.5,4.25,,-0.00275,-0.0025,0.0055,0.00425,,-0.0275,-0.025,0.055,0.0425
391,5,-9,41,-4,,1.25,-2.25,10.25,-1,,0.00125,-0.00225,0.01025,-0.001,,0.0125,-0.0225,0.1025,-0.01
392,-9,1,52,6,,-2.25,0.25,13,1.5,,-0.00225,0.00025,0.013,0.0015,,-0.0225,0.0025,0.13,0.015
393,-1,-4,-38,-18,,-0.25,-1,-9.5,-4.5,,-0.00025,-0.001,-0.0095,-0.0045,,-0.0025,-0.01,-0.095,-0.045
394,-1,-2,-36,-69,,-0.25,-0.5,-9,-17.25,,-0.00025,-0.0005,-0.009,-0.01725,,-0.0025,-0.005,-0.09,-0.1725
395,2,2,-16,-32,,0.5,0.5,-4,-8,,0.0005,0.0005,-0.004,-0.008,,0.005,0.005,-0.04,-0.08
396,4,1,-29,-13,,1,0.25,-7.25,-3.25,,0.001,0.00025,-0.00725,-0.00325,,0.01,0.0025,-0.0725,-0.0325
397,-1,-4,-28,3,,-0.25,-1,-7,0.75,,-0.00025,-0.001,-0.007,0.00075,,-0.0025,-0.01,-0.07,0.0075
398,16,-2,-24,-6,,4,-0.5,-6,-1.5,,0.004,-0.0005,-0.006,-0.0015,,0.04,-0.005,-0.06,-0.015
399,1,1,-26,9,,0.25,0.25,-6.5,2.25,,0.00025,0.00025,-0.0065,0.00225,,0.0025,0.0025,-0.065,0.0225
400,2,10,-23,17,,0.5,2.5,-5.75,4.25,,0.0005,0.0025,-0.00575,0.00425,,0.005,0.025,-0.0575,0.0425
401,1,-4,-19,-8,,0.25,-1,-4.75,-2,,0.00025,-0.001,-0.00475,-0.002,,0.0025,-0.01,-0.0475,-0.02
402,1,-2,-9,3,,0.25,-0.5,-2.25,0.75,,0.00025,-0.0005,-0.00225,0.00075,,0.0025,-0.005,-0.0225,0.0075
403,-19,-3,9,-5,,-4.75,-0.75,2.25,-1.25,,-0.00475,-0.00075,0.00225,-0.00125,,-0.0475,-0.0075,0.0225,-0.0125
404,-15,-8,29,-15,,-3.75,-2,7.25,-3.75,,-0.00375,-0.002,0.00725,-0.00375,,-0.0375,-0.02,0.0725,-0.0375
405,-17,-8,17,-3,,-4.25,-2,4.25,-0.75,,-0.00425,-0.002,0.00425,-0.00075,,-0.0425,-0.02,0.0425,-0.0075
406,-12,-3,30,15,,-3,-0.75,7.5,3.75,,-0.003,-0.00075,0.0075,0.00375,,-0.03,-0.0075,0.075,0.0375
407,-4,-7,-3,2,,-1,-1.75,-0.75,0.5,,-0.001,-0.00175,-0.00075,0.0005,,-0.01,-0.0175,-0.0075,0.005
408,-2,3,42,1,,-0.5,0.75,10.5,0.25,,-0.0005,0.00075,0.0105,0.00025,,-0.005,0.0075,0.105,0.0025
409,-10,-8,137,-2,,-2.5,-2,34.25,-0.5,,-0.0025,-0.002,0.03425,-0.0005,,-0.025,-0.02,0.3425,-0.005
410,1,-8,-98,2,,0.25,-2,-24.5,0.5,,0.00025,-0.002,-0.0245,0.0005,,0.0025,-0.02,-0.245,0.005
411,4,2,-48,-2,,1,0.5,-12,-0.5,,0.001,0.0005,-0.012,-0.0005,,0.01,0.005,-0.12,-0.005
412,1,-3,-24,-1,,0.25,-0.75,-6,-0.25,,0.00025,-0.00075,-0.006,-0.00025,,0.0025,-0.0075,-0.06,-0.0025
413,1,2,-27,-1,,0.25,0.5,-6.75,-0.25,,0.00025,0.0005,-0.00675,-0.00025,,0.0025,0.005,-0.0675,-0.0025
414,12,2,-30,0,,3,0.5,-7.5,0,,0.003,0.0005,-0.0075,0,,0.03,0.005,-0.075,0
415,8,4,-36,8,,2,1,-9,2,,0.002,0.001,-0.009,0.002,,0.02,0.01,-0.09,0.02
416,0,-10,-25,-3,,0,-2.5,-6.25,-0.75,,0,-0.0025,-0.00625,-0.00075,,0,-0.025,-0.0625,-0.0075
417,-1,-2,-37,-5,,-0.25,-0.5,-9.25,-1.25,,-0.00025,-0.0005,-0.00925,-0.00125,,-0.0025,-0.005,-0.0925,-0.0125
418,-5,3,-170,-18,,-1.25,0.75,-42.5,-4.5,,-0.00125,0.00075,-0.0425,-0.0045,,-0.0125,0.0075,-0.425,-0.045
419,5,-1,30,-2,,1.25,-0.25,7.5,-0.5,,0.00125,-0.00025,0.0075,-0.0005,,0.0125,-0.0025,0.075,-0.005
420,-7,-13,53,-2,,-1.75,-3.25,13.25,-0.5,,-0.00175,-0.00325,0.01325,-0.0005,,-0.0175,-0.0325,0.1325,-0.005
421,-2,-3,6,-4,,-0.5,-0.75,1.5,-1,,-0.0005,-0.00075,0.0015,-0.001,,-0.005,-0.0075,0.015,-0.01
422,-13,-1,19,-10,,-3.25,-0.25,4.75,-2.5,,-0.00325,-0.00025,0.00475,-0.0025,,-0.0325,-0.0025,0.0475,-0.025
423,-19,-6,4,-8,,-4.75,-1.5,1,-2,,-0.00475,-0.0015,0.001,-0.002,,-0.0475,-0.015,0.01,-0.02
424,-19,-6,11,-13,,-4.75,-1.5,2.75,-3.25,,-0.00475,-0.0015,0.00275,-0.00325,,-0.0475,-0.015,0.0275,-0.0325
425,-6,-5,19,-1,,-1.5,-1.25,4.75,-0.25,,-0.0015,-0.00125,0.00475,-0.00025,,-0.015,-0.0125,0.0475,-0.0025
426,3,-4,-1,15,,0.75,-1,-0.25,3.75,,0.00075,-0.001,-0.00025,0.00375,,0.0075,-0.01,-0.0025,0.0375
427,7,-2,-19,7,,1.75,-0.5,-4.75,1.75,,0.00175,-0.0005,-0.00475,0.00175,,0.0175,-0.005,-0.0475,0.0175
428,-3,5,-25,4,,-0.75,1.25,-6.25,1,,-0.00075,0.00125,-0.00625,0.001,,-0.0075,0.0125,-0.0625,0.01
429,0,-8,-18,10,,0,-2,-4.5,2.5,,0,-0.002,-0.0045,0.0025,,0,-0.02,-0.045,0.025
430,6,4,-21,-9,,1.5,1,-5.25,-2.25,,0.0015,0.001,-0.00525,-0.00225,,0.015,0.01,-0.0525,-0.0225
431,17,-12,26,-2,,4.25,-3,6.5,-0.5,,0.00425,-0.003,0.0065,-0.0005,,0.0425,-0.03,0.065,-0.005
432,6,-5,3,17,,1.5,-1.25,0.75,4.25,,0.0015,-0.00125,0.00075,0.00425,,0.015,-0.0125,0.0075,0.0425
433,4,-3,-25,3,,1,-0.75,-6.25,0.75,,0.001,-0.00075,-0.00625,0.00075,,0.01,-0.0075,-0.0625,0.0075
434,10,-1,-47,-6,,2.5,-0.25,-11.75,-1.5,,0.0025,-0.00025,-0.01175,-0.0015,,0.025,-0.0025,-0.1175,-0.015
435,0,-9,-2,2,,0,-2.25,-0.5,0.5,,0,-0.00225,-0.0005,0.0005,,0,-0.0225,-0.005,0.005
436,-1,-9,-14,-3,,-0.25,-2.25,-3.5,-0.75,,-0.00025,-0.00225,-0.0035,-0.00075,,-0.0025,-0.0225,-0.035,-0.0075
437,-15,-11,-11,7,,-3.75,-2.75,-2.75,1.75,,-0.00375,-0.00275,-0.00275,0.00175,,-0.0375,-0.0275,-0.0275,0.0175
438,-8,1,14,-2,,-2,0.25,3.5,-0.5,,-0.002,0.00025,0.0035,-0.0005,,-0.02,0.0025,0.035,-0.005
439,-9,-5,172,-4,,-2.25,-1.25,43,-1,,-0.00225,-0.00125,0.043,-0.001,,-0.0225,-0.0125,0.43,-0.01
440,-12,-2,-38,-1,,-3,-0.5,-9.5,-0.25,,-0.003,-0.0005,-0.0095,-0.00025,,-0.03,-0.005,-0.095,-0.0025
441,-4,-17,-95,2,,-1,-4.25,-23.75,0.5,,-0.001,-0.00425,-0.02375,0.0005,,-0.01,-0.0425,-0.2375,0.005
442,-17,-9,-24,-1,,-4.25,-2.25,-6,-0.25,,-0.00425,-0.00225,-0.006,-0.00025,,-0.0425,-0.0225,-0.06,-0.0025
443,3,-12,33,-48,,0.75,-3,8.25,-12,,0.00075,-0.003,0.00825,-0.012,,0.0075,-0.03,0.0825,-0.12
444,2,-10,39,-12,,0.5,-2.5,9.75,-3,,0.0005,-0.0025,0.00975,-0.003,,0.005,-0.025,0.0975,-0.03
445,3,-1,-47,-1,,0.75,-0.25,-11.75,-0.25,,0.00075,-0.00025,-0.01175,-0.00025,,0.0075,-0.0025,-0.1175,-0.0025
446,-6,-3,-40,9,,-1.5,-0.75,-10,2.25,,-0.0015,-0.00075,-0.01,0.00225,,-0.015,-0.0075,-0.1,0.0225
447,-2,-13,-32,-16,,-0.5,-3.25,-8,-4,,-0.0005,-0.00325,-0.008,-0.004,,-0.005,-0.0325,-0.08,-0.04
448,4,4,-45,-7,,1,1,-11.25,-1.75,,0.001,0.001,-0.01125,-0.00175,,0.01,0.01,-0.1125,-0.0175
449,10,7,-36,-12,,2.5,1.75,-9,-3,,0.0025,0.00175,-0.009,-0.003,,0.025,0.0175,-0.09,-0.03
450,0,7,-28,-1,,0,1.75,-7,-0.25,,0,0.00175,-0.007,-0.00025,,0,0.0175,-0.07,-0.0025
451,1,-1,-24,-3,,0.25,-0.25,-6,-0.75,,0.00025,-0.00025,-0.006,-0.00075,,0.0025,-0.0025,-0.06,-0.0075
452,-2,-5,-8,-43,,-0.5,-1.25,-2,-10.75,,-0.0005,-0.00125,-0.002,-0.01075,,-0.005,-0.0125,-0.02,-0.1075
453,-5,4,-1,-30,,-1.25,1,-0.25,-7.5,,-0.00125,0.001,-0.00025,-0.0075,,-0.0125,0.01,-0.0025,-0.075
454,-5,1,7,-10,,-1.25,0.25,1.75,-2.5,,-0.00125,0.00025,0.00175,-0.0025,,-0.0125,0.0025,0.0175,-0.025
455,-5,-4,12,-8,,-1.25,-1,3,-2,,-0.00125,-0.001,0.003,-0.002,,-0.0125,-0.01,0.03,-0.02
456,-20,-7,65,11,,-5,-1.75,16.25,2.75,,-0.005,-0.00175,0.01625,0.00275,,-0.05,-0.0175,0.1625,0.0275
457,-13,-12,41,172,,-3.25,-3,10.25,43,,-0.00325,-0.003,0.01025,0.043,,-0.0325,-0.03,0.1025,0.43
458,2,-8,-6,125,,0.5,-2,-1.5,31.25,,0.0005,-0.002,-0.0015,0.03125,,0.005,-0.02,-0.015,0.3125
459,-6,2,-35,-106,,-1.5,0.5,-8.75,-26.5,,-0.0015,0.0005,-0.00875,-0.0265,,-0.015,0.005,-0.0875,-0.265
460,-3,-3,-19,-81,,-0.75,-0.75,-4.75,-20.25,,-0.00075,-0.00075,-0.00475,-0.02025,,-0.0075,-0.0075,-0.0475,-0.2025
461,10,1,-25,15,,2.5,0.25,-6.25,3.75,,0.0025,0.00025,-0.00625,0.00375,,0.025,0.0025,-0.0625,0.0375
462,-1,12,-13,5,,-0.25,3,-3.25,1.25,,-0.00025,0.003,-0.00325,0.00125,,-0.0025,0.03,-0.0325,0.0125
463,9,3,-3,-10,,2.25,0.75,-0.75,-2.5,,0.00225,0.00075,-0.00075,-0.0025,,0.0225,0.0075,-0.0075,-0.025
464,16,-7,-3,-5,,4,-1.75,-0.75,-1.25,,0.004,-0.00175,-0.00075,-0.00125,,0.04,-0.0175,-0.0075,-0.0125
465,10,9,-58,1,,2.5,2.25,-14.5,0.25,,0.0025,0.00225,-0.0145,0.00025,,0.025,0.0225,-0.145,0.0025
466,8,8,-65,-10,,2,2,-16.25,-2.5,,0.002,0.002,-0.01625,-0.0025,,0.02,0.02,-0.1625,-0.025
467,1,2,-40,-8,,0.25,0.5,-10,-2,,0.00025,0.0005,-0.01,-0.002,,0.0025,0.005,-0.1,-0.02
468,8,1,258,8,,2,0.25,64.5,2,,0.002,0.00025,0.0645,0.002,,0.02,0.0025,0.645,0.02
469,-14,8,-92,7,,-3.5,2,-23,1.75,,-0.0035,0.002,-0.023,0.00175,,-0.035,0.02,-0.23,0.0175
470,4,-4,-37,-1,,1,-1,-9.25,-0.25,,0.001,-0.001,-0.00925,-0.00025,,0.01,-0.01,-0.0925,-0.0025
471,-3,-2,-11,-7,,-0.75,-0.5,-2.75,-1.75,,-0.00075,-0.0005,-0.00275,-0.00175,,-0.0075,-0.005,-0.0275,-0.0175
472,-8,7,0,-21,,-2,1.75,0,-5.25,,-0.002,0.00175,0,-0.00525,,-0.02,0.0175,0,-0.0525
473,-6,-1,-20,-6,,-1.5,-0.25,-5,-1.5,,-0.0015,-0.00025,-0.005,-0.0015,,-0.015,-0.0025,-0.05,-0.015
474,-3,-5,-12,9,,-0.75,-1.25,-3,2.25,,-0.00075,-0.00125,-0.003,0.00225,,-0.0075,-0.0125,-0.03,0.0225
475,-3,7,-29,8,,-0.75,1.75,-7.25,2,,-0.00075,0.00175,-0.00725,0.002,,-0.0075,0.0175,-0.0725,0.02
476,-6,7,-36,12,,-1.5,1.75,-9,3,,-0.0015,0.00175,-0.009,0.003,,-0.015,0.0175,-0.09,0.03
477,10,-1,3,1,,2.5,-0.25,0.75,0.25,,0.0025,-0.00025,0.00075,0.00025,,0.025,-0.0025,0.0075,0.0025
478,5,10,-8,13,,1.25,2.5,-2,3.25,,0.00125,0.0025,-0.002,0.00325,,0.0125,0.025,-0.02,0.0325
479,9,13,-69,8,,2.25,3.25,-17.25,2,,0.00225,0.00325,-0.01725,0.002,,0.0225,0.0325,-0.1725,0.02
480,13,-3,-172,2,,3.25,-0.75,-43,0.5,,0.00325,-0.00075,-0.043,0.0005,,0.0325,-0.0075,-0.43,0.005
481,31,7,50,-10,,7.75,1.75,12.5,-2.5,,0.00775,0.00175,0.0125,-0.0025,,0.0775,0.0175,0.125,-0.025
482,39,-10,21,45,,9.75,-2.5,5.25,11.25,,0.00975,-0.0025,0.00525,0.01125,,0.0975,-0.025,0.0525,0.1125
483,6,5,-5,-4,,1.5,1.25,-1.25,-1,,0.0015,0.00125,-0.00125,-0.001,,0.015,0.0125,-0.0125,-0.01
484,-12,12,-12,-6,,-3,3,-3,-1.5,,-0.003,0.003,-0.003,-0.0015,,-0.03,0.03,-0.03,-0.015
485,-1,3,-34,-23,,-0.25,0.75,-8.5,-5.75,,-0.00025,0.00075,-0.0085,-0.00575,,-0.0025,0.0075,-0.085,-0.0575
486,-10,2,-15,-4,,-2.5,0.5,-3.75,-1,,-0.0025,0.0005,-0.00375,-0.001,,-0.025,0.005,-0.0375,-0.01
487,-8,-2,0,-34,,-2,-0.5,0,-8.5,,-0.002,-0.0005,0,-0.0085,,-0.02,-0.005,0,-0.085
488,-11,-4,-3,-20,,-2.75,-1,-0.75,-5,,-0.00275,-0.001,-0.00075,-0.005,,-0.0275,-0.01,-0.0075,-0.05
489,-4,-7,13,-10,,-1,-1.75,3.25,-2.5,,-0.001,-0.00175,0.00325,-0.0025,,-0.01,-0.0175,0.0325,-0.025
490,2,-5,2,11,,0.5,-1.25,0.5,2.75,,0.0005,-0.00125,0.0005,0.00275,,0.005,-0.0125,0.005,0.0275
491,-7,-5,6,5,,-1.75,-1.25,1.5,1.25,,-0.00175,-0.00125,0.0015,0.00125,,-0.0175,-0.0125,0.015,0.0125
492,-10,8,-3,7,,-2.5,2,-0.75,1.75,,-0.0025,0.002,-0.00075,0.00175,,-0.025,0.02,-0.0075,0.0175
493,-2,2,-19,-4,,-0.5,0.5,-4.75,-1,,-0.0005,0.0005,-0.00475,-0.001,,-0.005,0.005,-0.0475,-0.01
494,-8,4,-20,-16,,-2,1,-5,-4,,-0.002,0.001,-0.005,-0.004,,-0.02,0.01,-0.05,-0.04
495,4,2,-10,3,,1,0.5,-2.5,0.75,,0.001,0.0005,-0.0025,0.00075,,0.01,0.005,-0.025,0.0075
496,4,-1,-41,6,,1,-0.25,-10.25,1.5,,0.001,-0.00025,-0.01025,0.0015,,0.01,-0.0025,-0.1025,0.015
497,18,-3,-44,11,,4.5,-0.75,-11,2.75,,0.0045,-0.00075,-0.011,0.00275,,0.045,-0.0075,-0.11,0.0275
498,13,-2,-34,-8,,3.25,-0.5,-8.5,-2,,0.00325,-0.0005,-0.0085,-0.002,,0.0325,-0.005,-0.085,-0.02
499,11,-1,-31,-2,,2.75,-0.25,-7.75,-0.5,,0.00275,-0.00025,-0.00775,-0.0005,,0.0275,-0.0025,-0.0775,-0.005
500,2,10,-39,2,,0.5,2.5,-9.75,0.5,,0.0005,0.0025,-0.00975,0.0005,,0.005,0.025,-0.0975,0.005
501,-6,8,-16,-6,,-1.5,2,-4,-1.5,,-0.0015,0.002,-0.004,-0.0015,,-0.015,0.02,-0.04,-0.015
502,-2,-2,4,3,,-0.5,-0.5,1,0.75,,-0.0005,-0.0005,0.001,0.00075,,-0.005,-0.005,0.01,0.0075
503,1,-11,6,-13,,0.25,-2.75,1.5,-3.25,,0.00025,-0.00275,0.0015,-0.00325,,0.0025,-0.0275,0.015,-0.0325
504,-5,-10,18,-12,,-1.25,-2.5,4.5,-3,,-0.00125,-0.0025,0.0045,-0.003,,-0.0125,-0.025,0.045,-0.03
505,-13,-13,-11,-16,,-3.25,-3.25,-2.75,-4,,-0.00325,-0.00325,-0.00275,-0.004,,-0.0325,-0.0325,-0.0275,-0.04
506,-11,2,-17,4,,-2.75,0.5,-4.25,1,,-0.00275,0.0005,-0.00425,0.001,,-0.0275,0.005,-0.0425,0.01
507,-18,-2,9,-5,,-4.5,-0.5,2.25,-1.25,,-0.0045,-0.0005,0.00225,-0.00125,,-0.045,-0.005,0.0225,-0.0125
508,-44,-4,-13,-273,,-11,-1,-3.25,-68.25,,-0.011,-0.001,-0.00325,-0.06825,,-0.11,-0.01,-0.0325,-0.6825
509,-41,-5,-16,-269,,-10.25,-1.25,-4,-67.25,,-0.01025,-0.00125,-0.004,-0.06725,,-0.1025,-0.0125,-0.04,-0.6725
510,-18,-4,-13,-73,,-4.5,-1,-3.25,-18.25,,-0.0045,-0.001,-0.00325,-0.01825,,-0.045,-0.01,-0.0325,-0.1825
511,49,1,2,108,,12.25,0.25,0.5,27,,0.01225,0.00025,0.0005,0.027,,0.1225,0.0025,0.005,0.27
512,33,2,-8,157,,8.25,0.5,-2,39.25,,0.00825,0.0005,-0.002,0.03925,,0.0825,0.005,-0.02,0.3925
513,18,4,6,53,,4.5,1,1.5,13.25,,0.0045,0.001,0.0015,0.01325,,0.045,0.01,0.015,0.1325
514,7,9,-19,6,,1.75,2.25,-4.75,1.5,,0.00175,0.00225,-0.00475,0.0015,,0.0175,0.0225,-0.0475,0.015
515,14,9,-52,4,,3.5,2.25,-13,1,,0.0035,0.00225,-0.013,0.001,,0.035,0.0225,-0.13,0.01
516,2,-2,-21,-52,,0.5,-0.5,-5.25,-13,,0.0005,-0.0005,-0.00525,-0.013,,0.005,-0.005,-0.0525,-0.13
517,3,8,-27,-29,,0.75,2,-6.75,-7.25,,0.00075,0.002,-0.00675,-0.00725,,0.0075,0.02,-0.0675,-0.0725
518,16,4,-38,15,,4,1,-9.5,3.75,,0.004,0.001,-0.0095,0.00375,,0.04,0.01,-0.095,0.0375
519,5,-3,-15,22,,1.25,-0.75,-3.75,5.5,,0.00125,-0.00075,-0.00375,0.0055,,0.0125,-0.0075,-0.0375,0.055
520,13,-13,27,31,,3.25,-3.25,6.75,7.75,,0.00325,-0.00325,0.00675,0.00775,,0.0325,-0.0325,0.0675,0.0775
521,5,-7,184,22,,1.25,-1.75,46,5.5,,0.00125,-0.00175,0.046,0.0055,,0.0125,-0.0175,0.46,0.055
522,8,-13,-121,-4,,2,-3.25,-30.25,-1,,0.002,-0.00325,-0.03025,-0.001,,0.02,-0.0325,-0.3025,-0.01
523,-25,-6,-37,-19,,-6.25,-1.5,-9.25,-4.75,,-0.00625,-0.0015,-0.00925,-0.00475,,-0.0625,-0.015,-0.0925,-0.0475
524,-16,-3,-2,-36,,-4,-0.75,-0.5,-9,,-0.004,-0.00075,-0.0005,-0.009,,-0.04,-0.0075,-0.005,-0.09
525,-8,5,-25,-39,,-2,1.25,-6.25,-9.75,,-0.002,0.00125,-0.00625,-0.00975,,-0.02,0.0125,-0.0625,-0.0975
526,2,0,-15,13,,0.5,0,-3.75,3.25,,0.0005,0,-0.00375,0.00325,,0.005,0,-0.0375,0.0325
527,11,10,-16,24,,2.75,2.5,-4,6,,0.00275,0.0025,-0.004,0.006,,0.0275,0.025,-0.04,0.06
528,4,4,-22,19,,1,1,-5.5,4.75,,0.001,0.001,-0.0055,0.00475,,0.01,0.01,-0.055,0.0475
529,10,-3,-34,12,,2.5,-0.75,-8.5,3,,0.0025,-0.00075,-0.0085,0.003,,0.025,-0.0075,-0.085,0.03
530,7,-6,-47,4,,1.75,-1.5,-11.75,1,,0.00175,-0.0015,-0.01175,0.001,,0.0175,-0.015,-0.1175,0.01
531,23,1,-59,5,,5.75,0.25,-14.75,1.25,,0.00575,0.00025,-0.01475,0.00125,,0.0575,0.0025,-0.1475,0.0125
532,13,3,-57,11,,3.25,0.75,-14.25,2.75,,0.00325,0.00075,-0.01425,0.00275,,0.0325,0.0075,-0.1425,0.0275
533,2,-4,-25,3,,0.5,-1,-6.25,0.75,,0.0005,-0.001,-0.00625,0.00075,,0.005,-0.01,-0.0625,0.0075
534,-8,1,-7,-18,,-2,0.25,-1.75,-4.5,,-0.002,0.00025,-0.00175,-0.0045,,-0.02,0.0025,-0.0175,-0.045
535,-1,0,-2,-7,,-0.25,0,-0.5,-1.75,,-0.00025,0,-0.0005,-0.00175,,-0.0025,0,-0.005,-0.0175
536,-8,2,4,15,,-2,0.5,1,3.75,,-0.002,0.0005,0.001,0.00375,,-0.02,0.005,0.01,0.0375
537,-3,-4,-3,-26,,-0.75,-1,-0.75,-6.5,,-0.00075,-0.001,-0.00075,-0.0065,,-0.0075,-0.01,-0.0075,-0.065
538,-11,-8,-8,-6,,-2.75,-2,-2,-1.5,,-0.00275,-0.002,-0.002,-0.0015,,-0.0275,-0.02,-0.02,-0.015
539,-3,-2,8,-5,,-0.75,-0.5,2,-1.25,,-0.00075,-0.0005,0.002,-0.00125,,-0.0075,-0.005,0.02,-0.0125
540,0,-8,38,-30,,0,-2,9.5,-7.5,,0,-0.002,0.0095,-0.0075,,0,-0.02,0.095,-0.075
541,-6,3,33,1,,-1.5,0.75,8.25,0.25,,-0.0015,0.00075,0.00825,0.00025,,-0.015,0.0075,0.0825,0.0025
542,2,-7,-5,1,,0.5,-1.75,-1.25,0.25,,0.0005,-0.00175,-0.00125,0.00025,,0.005,-0.0175,-0.0125,0.0025
543,0,-6,18,-29,,0,-1.5,4.5,-7.25,,0,-0.0015,0.0045,-0.00725,,0,-0.015,0.045,-0.0725
544,-2,-3,24,-104,,-0.5,-0.75,6,-26,,-0.0005,-0.00075,0.006,-0.026,,-0.005,-0.0075,0.06,-0.26
545,-12,4,-37,-105,,-3,1,-9.25,-26.25,,-0.003,0.001,-0.00925,-0.02625,,-0.03,0.01,-0.0925,-0.2625
546,8,9,-57,7,,2,2.25,-14.25,1.75,,0.002,0.00225,-0.01425,0.00175,,0.02,0.0225,-0.1425,0.0175
547,22,1,122,68,,5.5,0.25,30.5,17,,0.0055,0.00025,0.0305,0.017,,0.055,0.0025,0.305,0.17
548,14,8,-228,27,,3.5,2,-57,6.75,,0.0035,0.002,-0.057,0.00675,,0.035,0.02,-0.57,0.0675
549,6,11,-167,23,,1.5,2.75,-41.75,5.75,,0.0015,0.00275,-0.04175,0.00575,,0.015,0.0275,-0.4175,0.0575
550,-6,1,-11,1,,-1.5,0.25,-2.75,0.25,,-0.0015,0.00025,-0.00275,0.00025,,-0.015,0.0025,-0.0275,0.0025
551,-8,-1,14,-3,,-2,-0.25,3.5,-0.75,,-0.002,-0.00025,0.0035,-0.00075,,-0.02,-0.0025,0.035,-0.0075
552,-3,-3,7,-16,,-0.75,-0.75,1.75,-4,,-0.00075,-0.00075,0.00175,-0.004,,-0.0075,-0.0075,0.0175,-0.04
553,18,-7,-18,-29,,4.5,-1.75,-4.5,-7.25,,0.0045,-0.00175,-0.0045,-0.00725,,0.045,-0.0175,-0.045,-0.0725
554,-8,-1,-24,-8,,-2,-0.25,-6,-2,,-0.002,-0.00025,-0.006,-0.002,,-0.02,-0.0025,-0.06,-0.02
555,-14,-1,15,-14,,-3.5,-0.25,3.75,-3.5,,-0.0035,-0.00025,0.00375,-0.0035,,-0.035,-0.0025,0.0375,-0.035
556,-22,-3,17,6,,-5.5,-0.75,4.25,1.5,,-0.0055,-0.00075,0.00425,0.0015,,-0.055,-0.0075,0.0425,0.015
557,-20,-3,2,-5,,-5,-0.75,0.5,-1.25,,-0.005,-0.00075,0.0005,-0.00125,,-0.05,-0.0075,0.005,-0.0125
558,3,-4,-3,-9,,0.75,-1,-0.75,-2.25,,0.00075,-0.001,-0.00075,-0.00225,,0.0075,-0.01,-0.0075,-0.0225
559,2,-2,-13,-6,,0.5,-0.5,-3.25,-1.5,,0.0005,-0.0005,-0.00325,-0.0015,,0.005,-0.005,-0.0325,-0.015
560,6,-8,-15,16,,1.5,-2,-3.75,4,,0.0015,-0.002,-0.00375,0.004,,0.015,-0.02,-0.0375,0.04
561,4,7,-19,-18,,1,1.75,-4.75,-4.5,,0.001,0.00175,-0.00475,-0.0045,,0.01,0.0175,-0.0475,-0.045
562,10,-10,9,-12,,2.5,-2.5,2.25,-3,,0.0025,-0.0025,0.00225,-0.003,,0.025,-0.025,0.0225,-0.03
563,17,3,-4,-6,,4.25,0.75,-1,-1.5,,0.00425,0.00075,-0.001,-0.0015,,0.0425,0.0075,-0.01,-0.015
564,9,1,-65,-1,,2.25,0.25,-16.25,-0.25,,0.00225,0.00025,-0.01625,-0.00025,,0.0225,0.0025,-0.1625,-0.0025
565,8,0,-39,14,,2,0,-9.75,3.5,,0.002,0,-0.00975,0.0035,,0.02,0,-0.0975,0.035
566,16,8,-40,14,,4,2,-10,3.5,,0.004,0.002,-0.01,0.0035,,0.04,0.02,-0.1,0.035
567,18,3,-38,4,,4.5,0.75,-9.5,1,,0.0045,0.00075,-0.0095,0.001,,0.045,0.0075,-0.095,0.01
568,4,2,-18,4,,1,0.5,-4.5,1,,0.001,0.0005,-0.0045,0.001,,0.01,0.005,-0.045,0.01
569,-3,-1,-4,15,,-0.75,-0.25,-1,3.75,,-0.00075,-0.00025,-0.001,0.00375,,-0.0075,-0.0025,-0.01,0.0375
570,-4,-9,2,4,,-1,-2.25,0.5,1,,-0.001,-0.00225,0.0005,0.001,,-0.01,-0.0225,0.005,0.01
571,-8,-3,23,1,,-2,-0.75,5.75,0.25,,-0.002,-0.00075,0.00575,0.00025,,-0.02,-0.0075,0.0575,0.0025
572,-13,-5,227,-7,,-3.25,-1.25,56.75,-1.75,,-0.00325,-0.00125,0.05675,-0.00175,,-0.0325,-0.0125,0.5675,-0.0175
573,-7,-1,130,7,,-1.75,-0.25,32.5,1.75,,-0.00175,-0.00025,0.0325,0.00175,,-0.0175,-0.0025,0.325,0.0175
574,-1,-17,-141,0,,-0.25,-4.25,-35.25,0,,-0.00025,-0.00425,-0.03525,0,,-0.0025,-0.0425,-0.3525,0
575,1,2,-34,1,,0.25,0.5,-8.5,0.25,,0.00025,0.0005,-0.0085,0.00025,,0.0025,0.005,-0.085,0.0025
576,6,2,-78,5,,1.5,0.5,-19.5,1.25,,0.0015,0.0005,-0.0195,0.00125,,0.015,0.005,-0.195,0.0125
577,13,8,-42,11,,3.25,2,-10.5,2.75,,0.00325,0.002,-0.0105,0.00275,,0.0325,0.02,-0.105,0.0275
578,-14,10,-39,-11,,-3.5,2.5,-9.75,-2.75,,-0.0035,0.0025,-0.00975,-0.00275,,-0.035,0.025,-0.0975,-0.0275
579,1,-3,-29,-2,,0.25,-0.75,-7.25,-0.5,,0.00025,-0.00075,-0.00725,-0.0005,,0.0025,-0.0075,-0.0725,-0.005
580,12,-4,-34,15,,3,-1,-8.5,3.75,,0.003,-0.001,-0.0085,0.00375,,0.03,-0.01,-0.085,0.0375
581,17,-2,-42,1,,4.25,-0.5,-10.5,0.25,,0.00425,-0.0005,-0.0105,0.00025,,0.0425,-0.005,-0.105,0.0025
582,18,-9,-41,32,,4.5,-2.25,-10.25,8,,0.0045,-0.00225,-0.01025,0.008,,0.045,-0.0225,-0.1025,0.08
583,5,-4,-37,27,,1.25,-1,-9.25,6.75,,0.00125,-0.001,-0.00925,0.00675,,0.0125,-0.01,-0.0925,0.0675
584,-5,0,-23,-21,,-1.25,0,-5.75,-5.25,,-0.00125,0,-0.00575,-0.00525,,-0.0125,0,-0.0575,-0.0525
585,0,2,-8,4,,0,0.5,-2,1,,0,0.0005,-0.002,0.001,,0,0.005,-0.02,0.01
586,-3,-4,-12,8,,-0.75,-1,-3,2,,-0.00075,-0.001,-0.003,0.002,,-0.0075,-0.01,-0.03,0.02
587,-6,-7,3,5,,-1.5,-1.75,0.75,1.25,,-0.0015,-0.00175,0.00075,0.00125,,-0.015,-0.0175,0.0075,0.0125
588,-5,-8,-1,6,,-1.25,-2,-0.25,1.5,,-0.00125,-0.002,-0.00025,0.0015,,-0.0125,-0.02,-0.0025,0.015
589,-14,-8,3,-1,,-3.5,-2,0.75,-0.25,,-0.0035,-0.002,0.00075,-0.00025,,-0.035,-0.02,0.0075,-0.0025
590,-11,-1,23,-92,,-2.75,-0.25,5.75,-23,,-0.00275,-0.00025,0.00575,-0.023,,-0.0275,-0.0025,0.0575,-0.23
591,-1,0,11,-61,,-0.25,0,2.75,-15.25,,-0.00025,0,0.00275,-0.01525,,-0.0025,0,0.0275,-0.1525
592,3,-3,-12,13,,0.75,-0.75,-3,3.25,,0.00075,-0.00075,-0.003,0.00325,,0.0075,-0.0075,-0.03,0.0325
593,-3,-5,-15,1,,-0.75,-1.25,-3.75,0.25,,-0.00075,-0.00125,-0.00375,0.00025,,-0.0075,-0.0125,-0.0375,0.0025
594,1,8,-30,5,,0.25,2,-7.5,1.25,,0.00025,0.002,-0.0075,0.00125,,0.0025,0.02,-0.075,0.0125
595,0,3,-34,35,,0,0.75,-8.5,8.75,,0,0.00075,-0.0085,0.00875,,0,0.0075,-0.085,0.0875
596,9,-1,25,5,,2.25,-0.25,6.25,1.25,,0.00225,-0.00025,0.00625,0.00125,,0.0225,-0.0025,0.0625,0.0125
597,5,3,-30,8,,1.25,0.75,-7.5,2,,0.00125,0.00075,-0.0075,0.002,,0.0125,0.0075,-0.075,0.02
598,15,-9,-53,7,,3.75,-2.25,-13.25,1.75,,0.00375,-0.00225,-0.01325,0.00175,,0.0375,-0.0225,-0.1325,0.0175
599,7,-3,-46,16,,1.75,-0.75,-11.5,4,,0.00175,-0.00075,-0.0115,0.004,,0.0175,-0.0075,-0.115,0.04
600,7,-3,-18,11,,1.75,-0.75,-4.5,2.75,,0.00175,-0.00075,-0.0045,0.00275,,0.0175,-0.0075,-0.045,0.0275
601,-2,-4,-36,8,,-0.5,-1,-9,2,,-0.0005,-0.001,-0.009,0.002,,-0.005,-0.01,-0.09,0.02
602,-8,-3,-14,16,,-2,-0.75,-3.5,4,,-0.002,-0.00075,-0.0035,0.004,,-0.02,-0.0075,-0.035,0.04
603,-3,-8,-6,-22,,-0.75,-2,-1.5,-5.5,,-0.00075,-0.002,-0.0015,-0.0055,,-0.0075,-0.02,-0.015,-0.055
604,-21,-11,-3,-19,,-5.25,-2.75,-0.75,-4.75,,-0.00525,-0.00275,-0.00075,-0.00475,,-0.0525,-0.0275,-0.0075,-0.0475
605,-10,-7,21,-7,,-2.5,-1.75,5.25,-1.75,,-0.0025,-0.00175,0.00525,-0.00175,,-0.025,-0.0175,0.0525,-0.0175
606,-11,-12,18,3,,-2.75,-3,4.5,0.75,,-0.00275,-0.003,0.0045,0.00075,,-0.0275,-0.03,0.045,0.0075
607,-10,-2,12,-6,,-2.5,-0.5,3,-1.5,,-0.0025,-0.0005,0.003,-0.0015,,-0.025,-0.005,0.03,-0.015
608,-11,-1,-12,2,,-2.75,-0.25,-3,0.5,,-0.00275,-0.00025,-0.003,0.0005,,-0.0275,-0.0025,-0.03,0.005
609,3,-4,-21,3,,0.75,-1,-5.25,0.75,,0.00075,-0.001,-0.00525,0.00075,,0.0075,-0.01,-0.0525,0.0075
610,-1,-5,-21,11,,-0.25,-1.25,-5.25,2.75,,-0.00025,-0.00125,-0.00525,0.00275,,-0.0025,-0.0125,-0.0525,0.0275
611,6,2,-24,14,,1.5,0.5,-6,3.5,,0.0015,0.0005,-0.006,0.0035,,0.015,0.005,-0.06,0.035
612,13,0,-20,-2,,3.25,0,-5,-0.5,,0.00325,0,-0.005,-0.0005,,0.0325,0,-0.05,-0.005
613,12,1,-3,3,,3,0.25,-0.75,0.75,,0.003,0.00025,-0.00075,0.00075,,0.03,0.0025,-0.0075,0.0075
614,10,7,-91,3,,2.5,1.75,-22.75,0.75,,0.0025,0.00175,-0.02275,0.00075,,0.025,0.0175,-0.2275,0.0075
615,8,-1,-151,-2,,2,-0.25,-37.75,-0.5,,0.002,-0.00025,-0.03775,-0.0005,,0.02,-0.0025,-0.3775,-0.005
616,8,2,60,-11,,2,0.5,15,-2.75,,0.002,0.0005,0.015,-0.00275,,0.02,0.005,0.15,-0.0275
617,-7,-8,7,-13,,-1.75,-2,1.75,-3.25,,-0.00175,-0.002,0.00175,-0.00325,,-0.0175,-0.02,0.0175,-0.0325
618,6,0,-1,7,,1.5,0,-0.25,1.75,,0.0015,0,-0.00025,0.00175,,0.015,0,-0.0025,0.0175
619,-8,-14,2,0,,-2,-3.5,0.5,0,,-0.002,-0.0035,0.0005,0,,-0.02,-0.035,0.005,0
620,-8,2,-2,12,,-2,0.5,-0.5,3,,-0.002,0.0005,-0.0005,0.003,,-0.02,0.005,-0.005,0.03
621,-1,-4,-14,-24,,-0.25,-1,-3.5,-6,,-0.00025,-0.001,-0.0035,-0.006,,-0.0025,-0.01,-0.035,-0.06
622,-12,-11,26,-28,,-3,-2.75,6.5,-7,,-0.003,-0.00275,0.0065,-0.007,,-0.03,-0.0275,0.065,-0.07
623,-15,-11,20,24,,-3.75,-2.75,5,6,,-0.00375,-0.00275,0.005,0.006,,-0.0375,-0.0275,0.05,0.06
624,-24,-2,-16,-101,,-6,-0.5,-4,-25.25,,-0.006,-0.0005,-0.004,-0.02525,,-0.06,-0.005,-0.04,-0.2525
625,-44,-11,18,-102,,-11,-2.75,4.5,-25.5,,-0.011,-0.00275,0.0045,-0.0255,,-0.11,-0.0275,0.045,-0.255
626,-13,-6,308,-75,,-3.25,-1.5,77,-18.75,,-0.00325,-0.0015,0.077,-0.01875,,-0.0325,-0.015,0.77,-0.1875
627,17,-7,-60,64,,4.25,-1.75,-15,16,,0.00425,-0.00175,-0.015,0.016,,0.0425,-0.0175,-0.15,0.16
628,24,0,-119,83,,6,0,-29.75,20.75,,0.006,0,-0.02975,0.02075,,0.06,0,-0.2975,0.2075
629,14,3,-54,20,,3.5,0.75,-13.5,5,,0.0035,0.00075,-0.0135,0.005,,0.035,0.0075,-0.135,0.05
630,11,5,-41,13,,2.75,1.25,-10.25,3.25,,0.00275,0.00125,-0.01025,0.00325,,0.0275,0.0125,-0.1025,0.0325
631,12,8,-16,4,,3,2,-4,1,,0.003,0.002,-0.004,0.001,,0.03,0.02,-0.04,0.01
632,9,-2,-28,18,,2.25,-0.5,-7,4.5,,0.00225,-0.0005,-0.007,0.0045,,0.0225,-0.005,-0.07,0.045
633,10,1,-41,2,,2.5,0.25,-10.25,0.5,,0.0025,0.00025,-0.01025,0.0005,,0.025,0.0025,-0.1025,0.005
634,3,8,-21,-7,,0.75,2,-5.25,-1.75,,0.00075,0.002,-0.00525,-0.00175,,0.0075,0.02,-0.0525,-0.0175
635,-8,-1,-33,-11,,-2,-0.25,-8.25,-2.75,,-0.002,-0.00025,-0.00825,-0.00275,,-0.02,-0.0025,-0.0825,-0.0275
636,-8,6,-13,-2,,-2,1.5,-3.25,-0.5,,-0.002,0.0015,-0.00325,-0.0005,,-0.02,0.015,-0.0325,-0.005
637,-6,-4,-11,17,,-1.5,-1,-2.75,4.25,,-0.0015,-0.001,-0.00275,0.00425,,-0.015,-0.01,-0.0275,0.0425
638,-15,-12,-18,11,,-3.75,-3,-4.5,2.75,,-0.00375,-0.003,-0.0045,0.00275,,-0.0375,-0.03,-0.045,0.0275
639,-12,-2,-5,4,,-3,-0.5,-1.25,1,,-0.003,-0.0005,-0.00125,0.001,,-0.03,-0.005,-0.0125,0.01
640,-17,-9,1,-10,,-4.25,-2.25,0.25,-2.5,,-0.00425,-0.00225,0.00025,-0.0025,,-0.0425,-0.0225,0.0025,-0.025
641,-5,-9,9,6,,-1.25,-2.25,2.25,1.5,,-0.00125,-0.00225,0.00225,0.0015,,-0.0125,-0.0225,0.0225,0.015
642,-2,-4,24,0,,-0.5,-1,6,0,,-0.0005,-0.001,0.006,0,,-0.005,-0.01,0.06,0
643,-10,-5,27,14,,-2.5,-1.25,6.75,3.5,,-0.0025,-0.00125,0.00675,0.0035,,-0.025,-0.0125,0.0675,0.035
644,11,-2,98,15,,2.75,-0.5,24.5,3.75,,0.00275,-0.0005,0.0245,0.00375,,0.0275,-0.005,0.245,0.0375
645,2,0,-49,7,,0.5,0,-12.25,1.75,,0.0005,0,-0.01225,0.00175,,0.005,0,-0.1225,0.0175
646,2,3,-82,10,,0.5,0.75,-20.5,2.5,,0.0005,0.00075,-0.0205,0.0025,,0.005,0.0075,-0.205,0.025
647,6,0,-58,6,,1.5,0,-14.5,1.5,,0.0015,0,-0.0145,0.0015,,0.015,0,-0.145,0.015
648,10,5,-37,8,,2.5,1.25,-9.25,2,,0.0025,0.00125,-0.00925,0.002,,0.025,0.0125,-0.0925,0.02
649,5,3,1,10,,1.25,0.75,0.25,2.5,,0.00125,0.00075,0.00025,0.0025,,0.0125,0.0075,0.0025,0.025
650,5,3,-48,-4,,1.25,0.75,-12,-1,,0.00125,0.00075,-0.012,-0.001,,0.0125,0.0075,-0.12,-0.01
651,2,-8,6,3,,0.5,-2,1.5,0.75,,0.0005,-0.002,0.0015,0.00075,,0.005,-0.02,0.015,0.0075
652,-9,4,-11,4,,-2.25,1,-2.75,1,,-0.00225,0.001,-0.00275,0.001,,-0.0225,0.01,-0.0275,0.01
653,-14,-6,-23,5,,-3.5,-1.5,-5.75,1.25,,-0.0035,-0.0015,-0.00575,0.00125,,-0.035,-0.015,-0.0575,0.0125
654,-1,-4,-40,0,,-0.25,-1,-10,0,,-0.00025,-0.001,-0.01,0,,-0.0025,-0.01,-0.1,0
655,-11,-5,25,-3,,-2.75,-1.25,6.25,-0.75,,-0.00275,-0.00125,0.00625,-0.00075,,-0.0275,-0.0125,0.0625,-0.0075
656,-15,-13,231,27,,-3.75,-3.25,57.75,6.75,,-0.00375,-0.00325,0.05775,0.00675,,-0.0375,-0.0325,0.5775,0.0675
657,-11,-1,-87,-19,,-2.75,-0.25,-21.75,-4.75,,-0.00275,-0.00025,-0.02175,-0.00475,,-0.0275,-0.0025,-0.2175,-0.0475
658,-11,-7,-72,-11,,-2.75,-1.75,-18,-2.75,,-0.00275,-0.00175,-0.018,-0.00275,,-0.0275,-0.0175,-0.18,-0.0275
659,-10,-9,15,7,,-2.5,-2.25,3.75,1.75,,-0.0025,-0.00225,0.00375,0.00175,,-0.025,-0.0225,0.0375,0.0175
660,9,-3,-5,13,,2.25,-0.75,-1.25,3.25,,0.00225,-0.00075,-0.00125,0.00325,,0.0225,-0.0075,-0.0125,0.0325
661,-4,5,-25,16,,-1,1.25,-6.25,4,,-0.001,0.00125,-0.00625,0.004,,-0.01,0.0125,-0.0625,0.04
662,3,0,-42,15,,0.75,0,-10.5,3.75,,0.00075,0,-0.0105,0.00375,,0.0075,0,-0.105,0.0375
663,-3,3,-58,1,,-0.75,0.75,-14.5,0.25,,-0.00075,0.00075,-0.0145,0.00025,,-0.0075,0.0075,-0.145,0.0025
664,8,6,-30,10,,2,1.5,-7.5,2.5,,0.002,0.0015,-0.0075,0.0025,,0.02,0.015,-0.075,0.025
665,-9,-3,-9,-77,,-2.25,-0.75,-2.25,-19.25,,-0.00225,-0.00075,-0.00225,-0.01925,,-0.0225,-0.0075,-0.0225,-0.1925
666,-17,2,6,-98,,-4.25,0.5,1.5,-24.5,,-0.00425,0.0005,0.0015,-0.0245,,-0.0425,0.005,0.015,-0.245
667,11,6,11,-16,,2.75,1.5,2.75,-4,,0.00275,0.0015,0.00275,-0.004,,0.0275,0.015,0.0275,-0.04
668,15,-5,-27,57,,3.75,-1.25,-6.75,14.25,,0.00375,-0.00125,-0.00675,0.01425,,0.0375,-0.0125,-0.0675,0.1425
669,5,-6,-28,37,,1.25,-1.5,-7,9.25,,0.00125,-0.0015,-0.007,0.00925,,0.0125,-0.015,-0.07,0.0925
670,-4,-4,5,-15,,-1,-1,1.25,-3.75,,-0.001,-0.001,0.00125,-0.00375,,-0.01,-0.01,0.0125,-0.0375
671,-7,-1,-25,2,,-1.75,-0.25,-6.25,0.5,,-0.00175,-0.00025,-0.00625,0.0005,,-0.0175,-0.0025,-0.0625,0.005
672,-7,7,145,12,,-1.75,1.75,36.25,3,,-0.00175,0.00175,0.03625,0.003,,-0.0175,0.0175,0.3625,0.03
673,-3,-5,96,8,,-0.75,-1.25,24,2,,-0.00075,-0.00125,0.024,0.002,,-0.0075,-0.0125,0.24,0.02
674,-6,-13,-220,-2,,-1.5,-3.25,-55,-0.5,,-0.0015,-0.00325,-0.055,-0.0005,,-0.015,-0.0325,-0.55,-0.005
675,-10,-5,-54,-4,,-2.5,-1.25,-13.5,-1,,-0.0025,-0.00125,-0.0135,-0.001,,-0.025,-0.0125,-0.135,-0.01
676,-5,1,62,-48,,-1.25,0.25,15.5,-12,,-0.00125,0.00025,0.0155,-0.012,,-0.0125,0.0025,0.155,-0.12
677,-14,4,6,-139,,-3.5,1,1.5,-34.75,,-0.0035,0.001,0.0015,-0.03475,,-0.035,0.01,0.015,-0.3475
678,-2,5,-16,-115,,-0.5,1.25,-4,-28.75,,-0.0005,0.00125,-0.004,-0.02875,,-0.005,0.0125,-0.04,-0.2875
679,-6,-9,-42,54,,-1.5,-2.25,-10.5,13.5,,-0.0015,-0.00225,-0.0105,0.0135,,-0.015,-0.0225,-0.105,0.135
680,10,-2,-55,51,,2.5,-0.5,-13.75,12.75,,0.0025,-0.0005,-0.01375,0.01275,,0.025,-0.005,-0.1375,0.1275
681,21,-7,-31,38,,5.25,-1.75,-7.75,9.5,,0.00525,-0.00175,-0.00775,0.0095,,0.0525,-0.0175,-0.0775,0.095
682,14,8,-12,40,,3.5,2,-3,10,,0.0035,0.002,-0.003,0.01,,0.035,0.02,-0.03,0.1
683,7,4,-7,13,,1.75,1,-1.75,3.25,,0.00175,0.001,-0.00175,0.00325,,0.0175,0.01,-0.0175,0.0325
684,5,-5,-30,0,,1.25,-1.25,-7.5,0,,0.00125,-0.00125,-0.0075,0,,0.0125,-0.0125,-0.075,0
685,-4,4,-13,-6,,-1,1,-3.25,-1.5,,-0.001,0.001,-0.00325,-0.0015,,-0.01,0.01,-0.0325,-0.015
686,0,7,-9,-46,,0,1.75,-2.25,-11.5,,0,0.00175,-0.00225,-0.0115,,0,0.0175,-0.0225,-0.115
687,-3,-3,-11,-45,,-0.75,-0.75,-2.75,-11.25,,-0.00075,-0.00075,-0.00275,-0.01125,,-0.0075,-0.0075,-0.0275,-0.1125
688,-6,1,-3,10,,-1.5,0.25,-0.75,2.5,,-0.0015,0.00025,-0.00075,0.0025,,-0.015,0.0025,-0.0075,0.025
689,-10,1,12,9,,-2.5,0.25,3,2.25,,-0.0025,0.00025,0.003,0.00225,,-0.025,0.0025,0.03,0.0225
690,-17,-8,7,-1,,-4.25,-2,1.75,-0.25,,-0.00425,-0.002,0.00175,-0.00025,,-0.0425,-0.02,0.0175,-0.0025
691,-4,-5,-7,-10,,-1,-1.25,-1.75,-2.5,,-0.001,-0.00125,-0.00175,-0.0025,,-0.01,-0.0125,-0.0175,-0.025
692,-1,3,62,12,,-0.25,0.75,15.5,3,,-0.00025,0.00075,0.0155,0.003,,-0.0025,0.0075,0.155,0.03
693,7,0,-2,11,,1.75,0,-0.5,2.75,,0.00175,0,-0.0005,0.00275,,0.0175,0,-0.005,0.0275
694,-1,0,-38,20,,-0.25,0,-9.5,5,,-0.00025,0,-0.0095,0.005,,-0.0025,0,-0.095,0.05
695,-13,-2,-14,-1,,-3.25,-0.5,-3.5,-0.25,,-0.00325,-0.0005,-0.0035,-0.00025,,-0.0325,-0.005,-0.035,-0.0025
696,5,0,-23,3,,1.25,0,-5.75,0.75,,0.00125,0,-0.00575,0.00075,,0.0125,0,-0.0575,0.0075
697,6,5,-37,26,,1.5,1.25,-9.25,6.5,,0.0015,0.00125,-0.00925,0.0065,,0.015,0.0125,-0.0925,0.065
698,8,3,-52,10,,2,0.75,-13,2.5,,0.002,0.00075,-0.013,0.0025,,0.02,0.0075,-0.13,0.025
699,0,-4,-50,10,,0,-1,-12.5,2.5,,0,-0.001,-0.0125,0.0025,,0,-0.01,-0.125,0.025
700,6,-5,-13,11,,1.5,-1.25,-3.25,2.75,,0.0015,-0.00125,-0.00325,0.00275,,0.015,-0.0125,-0.0325,0.0275
701,1,-6,20,7,,0.25,-1.5,5,1.75,,0.00025,-0.0015,0.005,0.00175,,0.0025,-0.015,0.05,0.0175
702,-4,-8,-9,-2,,-1,-2,-2.25,-0.5,,-0.001,-0.002,-0.00225,-0.0005,,-0.01,-0.02,-0.0225,-0.005
703,6,-13,55,5,,1.5,-3.25,13.75,1.25,,0.0015,-0.00325,0.01375,0.00125,,0.015,-0.0325,0.1375,0.0125
704,-1,-8,22,-8,,-0.25,-2,5.5,-2,,-0.00025,-0.002,0.0055,-0.002,,-0.0025,-0.02,0.055,-0.02
705,-5,-7,-1,6,,-1.25,-1.75,-0.25,1.5,,-0.00125,-0.00175,-0.00025,0.0015,,-0.0125,-0.0175,-0.0025,0.015
706,-2,0,4,13,,-0.5,0,1,3.25,,-0.0005,0,0.001,0.00325,,-0.005,0,0.01,0.0325
707,11,-18,4,5,,2.75,-4.5,1,1.25,,0.00275,-0.0045,0.001,0.00125,,0.0275,-0.045,0.01,0.0125
708,-1,-6,-12,-20,,-0.25,-1.5,-3,-5,,-0.00025,-0.0015,-0.003,-0.005,,-0.0025,-0.015,-0.03,-0.05
709,20,-18,-8,5,,5,-4.5,-2,1.25,,0.005,-0.0045,-0.002,0.00125,,0.05,-0.045,-0.02,0.0125
710,-8,-5,-2,-15,,-2,-1.25,-0.5,-3.75,,-0.002,-0.00125,-0.0005,-0.00375,,-0.02,-0.0125,-0.005,-0.0375
711,-14,4,-3,-29,,-3.5,1,-0.75,-7.25,,-0.0035,0.001,-0.00075,-0.00725,,-0.035,0.01,-0.0075,-0.0725
712,3,6,-20,5,,0.75,1.5,-5,1.25,,0.00075,0.0015,-0.005,0.00125,,0.0075,0.015,-0.05,0.0125
713,2,4,-46,14,,0.5,1,-11.5,3.5,,0.0005,0.001,-0.0115,0.0035,,0.005,0.01,-0.115,0.035
714,12,-3,-38,11,,3,-0.75,-9.5,2.75,,0.003,-0.00075,-0.0095,0.00275,,0.03,-0.0075,-0.095,0.0275
715,10,11,-32,3,,2.5,2.75,-8,0.75,,0.0025,0.00275,-0.008,0.00075,,0.025,0.0275,-0.08,0.0075
716,8,-9,-26,1,,2,-2.25,-6.5,0.25,,0.002,-0.00225,-0.0065,0.00025,,0.02,-0.0225,-0.065,0.0025
717,-6,9,-13,-9,,-1.5,2.25,-3.25,-2.25,,-0.0015,0.00225,-0.00325,-0.00225,,-0.015,0.0225,-0.0325,-0.0225
718,-8,1,-13,-12,,-2,0.25,-3.25,-3,,-0.002,0.00025,-0.00325,-0.003,,-0.02,0.0025,-0.0325,-0.03
719,-12,-1,-16,-6,,-3,-0.25,-4,-1.5,,-0.003,-0.00025,-0.004,-0.0015,,-0.03,-0.0025,-0.04,-0.015
720,-6,-2,-2,-8,,-1.5,-0.5,-0.5,-2,,-0.0015,-0.0005,-0.0005,-0.002,,-0.015,-0.005,-0.005,-0.02
721,-18,0,1,-1,,-4.5,0,0.25,-0.25,,-0.0045,0,0.00025,-0.00025,,-0.045,0,0.0025,-0.0025
722,-10,-7,8,2,,-2.5,-1.75,2,0.5,,-0.0025,-0.00175,0.002,0.0005,,-0.025,-0.0175,0.02,0.005
723,-3,-5,12,3,,-0.75,-1.25,3,0.75,,-0.00075,-0.00125,0.003,0.00075,,-0.0075,-0.0125,0.03,0.0075
724,-1,-3,12,15,,-0.25,-0.75,3,3.75,,-0.00025,-0.00075,0.003,0.00375,,-0.0025,-0.0075,0.03,0.0375
725,-13,-6,10,-22,,-3.25,-1.5,2.5,-5.5,,-0.00325,-0.0015,0.0025,-0.0055,,-0.0325,-0.015,0.025,-0.055
726,-7,-2,5,8,,-1.75,-0.5,1.25,2,,-0.00175,-0.0005,0.00125,0.002,,-0.0175,-0.005,0.0125,0.02
727,3,-10,-37,4,,0.75,-2.5,-9.25,1,,0.00075,-0.0025,-0.00925,0.001,,0.0075,-0.025,-0.0925,0.01
728,9,1,268,-2,,2.25,0.25,67,-0.5,,0.00225,0.00025,0.067,-0.0005,,0.0225,0.0025,0.67,-0.005
729,6,0,-28,29,,1.5,0,-7,7.25,,0.0015,0,-0.007,0.00725,,0.015,0,-0.07,0.0725
730,20,-8,-133,3,,5,-2,-33.25,0.75,,0.005,-0.002,-0.03325,0.00075,,0.05,-0.02,-0.3325,0.0075
731,1,2,-76,-18,,0.25,0.5,-19,-4.5,,0.00025,0.0005,-0.019,-0.0045,,0.0025,0.005,-0.19,-0.045
732,5,13,-34,6,,1.25,3.25,-8.5,1.5,,0.00125,0.00325,-0.0085,0.0015,,0.0125,0.0325,-0.085,0.015
733,8,-2,-23,15,,2,-0.5,-5.75,3.75,,0.002,-0.0005,-0.00575,0.00375,,0.02,-0.005,-0.0575,0.0375
734,8,1,-20,18,,2,0.25,-5,4.5,,0.002,0.00025,-0.005,0.0045,,0.02,0.0025,-0.05,0.045
735,5,-1,-11,7,,1.25,-0.25,-2.75,1.75,,0.00125,-0.00025,-0.00275,0.00175,,0.0125,-0.0025,-0.0275,0.0175
736,-1,-4,-1,-11,,-0.25,-1,-0.25,-2.75,,-0.00025,-0.001,-0.00025,-0.00275,,-0.0025,-0.01,-0.0025,-0.0275
737,2,-9,-7,3,,0.5,-2.25,-1.75,0.75,,0.0005,-0.00225,-0.00175,0.00075,,0.005,-0.0225,-0.0175,0.0075
738,-3,-18,3,-5,,-0.75,-4.5,0.75,-1.25,,-0.00075,-0.0045,0.00075,-0.00125,,-0.0075,-0.045,0.0075,-0.0125
739,-4,-15,9,-8,,-1,-3.75,2.25,-2,,-0.001,-0.00375,0.00225,-0.002,,-0.01,-0.0375,0.0225,-0.02
740,-13,-7,14,4,,-3.25,-1.75,3.5,1,,-0.00325,-0.00175,0.0035,0.001,,-0.0325,-0.0175,0.035,0.01
741,-6,6,0,-2,,-1.5,1.5,0,-0.5,,-0.0015,0.0015,0,-0.0005,,-0.015,0.015,0,-0.005
742,1,-3,-6,-5,,0.25,-0.75,-1.5,-1.25,,0.00025,-0.00075,-0.0015,-0.00125,,0.0025,-0.0075,-0.015,-0.0125
743,2,-1,-6,2,,0.5,-0.25,-1.5,0.5,,0.0005,-0.00025,-0.0015,0.0005,,0.005,-0.0025,-0.015,0.005
744,0,-2,-14,3,,0,-0.5,-3.5,0.75,,0,-0.0005,-0.0035,0.00075,,0,-0.005,-0.035,0.0075
745,8,6,-19,2,,2,1.5,-4.75,0.5,,0.002,0.0015,-0.00475,0.0005,,0.02,0.015,-0.0475,0.005
746,10,0,-17,16,,2.5,0,-4.25,4,,0.0025,0,-0.00425,0.004,,0.025,0,-0.0425,0.04
747,14,-1,-33,1,,3.5,-0.25,-8.25,0.25,,0.0035,-0.00025,-0.00825,0.00025,,0.035,-0.0025,-0.0825,0.0025
748,9,8,-40,6,,2.25,2,-10,1.5,,0.00225,0.002,-0.01,0.0015,,0.0225,0.02,-0.1,0.015
749,-1,-1,-24,-4,,-0.25,-0.25,-6,-1,,-0.00025,-0.00025,-0.006,-0.001,,-0.0025,-0.0025,-0.06,-0.01
750,-6,1,-27,7,,-1.5,0.25,-6.75,1.75,,-0.0015,0.00025,-0.00675,0.00175,,-0.015,0.0025,-0.0675,0.0175
751,1,7,-14,5,,0.25,1.75,-3.5,1.25,,0.00025,0.00175,-0.0035,0.00125,,0.0025,0.0175,-0.035,0.0125
752,-5,-10,-10,-5,,-1.25,-2.5,-2.5,-1.25,,-0.00125,-0.0025,-0.0025,-0.00125,,-0.0125,-0.025,-0.025,-0.0125
753,-2,2,-110,-20,,-0.5,0.5,-27.5,-5,,-0.0005,0.0005,-0.0275,-0.005,,-0.005,0.005,-0.275,-0.05
754,-24,1,69,-26,,-6,0.25,17.25,-6.5,,-0.006,0.00025,0.01725,-0.0065,,-0.06,0.0025,0.1725,-0.065
755,-22,-7,36,-13,,-5.5,-1.75,9,-3.25,,-0.0055,-0.00175,0.009,-0.00325,,-0.055,-0.0175,0.09,-0.0325
756,-5,4,-33,2,,-1.25,1,-8.25,0.5,,-0.00125,0.001,-0.00825,0.0005,,-0.0125,0.01,-0.0825,0.005
757,-6,-2,11,3,,-1.5,-0.5,2.75,0.75,,-0.0015,-0.0005,0.00275,0.00075,,-0.015,-0.005,0.0275,0.0075
758,-6,-5,27,0,,-1.5,-1.25,6.75,0,,-0.0015,-0.00125,0.00675,0,,-0.015,-0.0125,0.0675,0
759,9,-4,24,-7,,2.25,-1,6,-1.75,,0.00225,-0.001,0.006,-0.00175,,0.0225,-0.01,0.06,-0.0175
760,12,-7,-19,1,,3,-1.75,-4.75,0.25,,0.003,-0.00175,-0.00475,0.00025,,0.03,-0.0175,-0.0475,0.0025
761,-11,4,-15,-75,,-2.75,1,-3.75,-18.75,,-0.00275,0.001,-0.00375,-0.01875,,-0.0275,0.01,-0.0375,-0.1875
762,-33,3,-18,-130,,-8.25,0.75,-4.5,-32.5,,-0.00825,0.00075,-0.0045,-0.0325,,-0.0825,0.0075,-0.045,-0.325
763,-13,7,-32,-84,,-3.25,1.75,-8,-21,,-0.00325,0.00175,-0.008,-0.021,,-0.0325,0.0175,-0.08,-0.21
764,19,2,-40,48,,4.75,0.5,-10,12,,0.00475,0.0005,-0.01,0.012,,0.0475,0.005,-0.1,0.12
765,22,8,-34,90,,5.5,2,-8.5,22.5,,0.0055,0.002,-0.0085,0.0225,,0.055,0.02,-0.085,0.225
766,10,-6,48,28,,2.5,-1.5,12,7,,0.0025,-0.0015,0.012,0.007,,0.025,-0.015,0.12,0.07
767,6,-2,173,19,,1.5,-0.5,43.25,4.75,,0.0015,-0.0005,0.04325,0.00475,,0.015,-0.005,0.4325,0.0475
768,-7,-6,-126,-1,,-1.75,-1.5,-31.5,-0.25,,-0.00175,-0.0015,-0.0315,-0.00025,,-0.0175,-0.015,-0.315,-0.0025
769,-1,-3,-67,17,,-0.25,-0.75,-16.75,4.25,,-0.00025,-0.00075,-0.01675,0.00425,,-0.0025,-0.0075,-0.1675,0.0425
770,-10,-1,12,6,,-2.5,-0.25,3,1.5,,-0.0025,-0.00025,0.003,0.0015,,-0.025,-0.0025,0.03,0.015
771,-18,-11,0,-13,,-4.5,-2.75,0,-3.25,,-0.0045,-0.00275,0,-0.00325,,-0.045,-0.0275,0,-0.0325
772,-10,-5,64,-8,,-2.5,-1.25,16,-2,,-0.0025,-0.00125,0.016,-0.002,,-0.025,-0.0125,0.16,-0.02
773,-20,0,-31,-15,,-5,0,-7.75,-3.75,,-0.005,0,-0.00775,-0.00375,,-0.05,0,-0.0775,-0.0375
774,-24,-4,-39,-2,,-6,-1,-9.75,-0.5,,-0.006,-0.001,-0.00975,-0.0005,,-0.06,-0.01,-0.0975,-0.005
775,9,-7,-9,6,,2.25,-1.75,-2.25,1.5,,0.00225,-0.00175,-0.00225,0.0015,,0.0225,-0.0175,-0.0225,0.015
776,-16,7,-15,-15,,-4,1.75,-3.75,-3.75,,-0.004,0.00175,-0.00375,-0.00375,,-0.04,0.0175,-0.0375,-0.0375
777,-20,1,-17,-83,,-5,0.25,-4.25,-20.75,,-0.005,0.00025,-0.00425,-0.02075,,-0.05,0.0025,-0.0425,-0.2075
778,-12,2,-19,-61,,-3,0.5,-4.75,-15.25,,-0.003,0.0005,-0.00475,-0.01525,,-0.03,0.005,-0.0475,-0.1525
779,12,3,-26,22,,3,0.75,-6.5,5.5,,0.003,0.00075,-0.0065,0.0055,,0.03,0.0075,-0.065,0.055
780,18,7,-35,65,,4.5,1.75,-8.75,16.25,,0.0045,0.00175,-0.00875,0.01625,,0.045,0.0175,-0.0875,0.1625
781,22,1,-25,32,,5.5,0.25,-6.25,8,,0.0055,0.00025,-0.00625,0.008,,0.055,0.0025,-0.0625,0.08
782,13,5,247,20,,3.25,1.25,61.75,5,,0.00325,0.00125,0.06175,0.005,,0.0325,0.0125,0.6175,0.05
783,15,3,-29,11,,3.75,0.75,-7.25,2.75,,0.00375,0.00075,-0.00725,0.00275,,0.0375,0.0075,-0.0725,0.0275
784,-5,0,-109,11,,-1.25,0,-27.25,2.75,,-0.00125,0,-0.02725,0.00275,,-0.0125,0,-0.2725,0.0275
785,-3,-3,-28,-7,,-0.75,-0.75,-7,-1.75,,-0.00075,-0.00075,-0.007,-0.00175,,-0.0075,-0.0075,-0.07,-0.0175
786,-9,-5,38,10,,-2.25,-1.25,9.5,2.5,,-0.00225,-0.00125,0.0095,0.0025,,-0.0225,-0.0125,0.095,0.025
787,-11,-6,41,8,,-2.75,-1.5,10.25,2,,-0.00275,-0.0015,0.01025,0.002,,-0.0275,-0.015,0.1025,0.02
788,-8,-23,-9,41,,-2,-5.75,-2.25,10.25,,-0.002,-0.00575,-0.00225,0.01025,,-0.02,-0.0575,-0.0225,0.1025
789,3,-11,-11,-26,,0.75,-2.75,-2.75,-6.5,,0.00075,-0.00275,-0.00275,-0.0065,,0.0075,-0.0275,-0.0275,-0.065
790,12,-12,-4,-27,,3,-3,-1,-6.75,,0.003,-0.003,-0.001,-0.00675,,0.03,-0.03,-0.01,-0.0675
791,-6,-2,18,9,,-1.5,-0.5,4.5,2.25,,-0.0015,-0.0005,0.0045,0.00225,,-0.015,-0.005,0.045,0.0225
792,-15,4,-21,-16,,-3.75,1,-5.25,-4,,-0.00375,0.001,-0.00525,-0.004,,-0.0375,0.01,-0.0525,-0.04
793,-11,-3,-17,12,,-2.75,-0.75,-4.25,3,,-0.00275,-0.00075,-0.00425,0.003,,-0.0275,-0.0075,-0.0425,0.03
794,-18,3,27,-57,,-4.5,0.75,6.75,-14.25,,-0.0045,0.00075,0.00675,-0.01425,,-0.045,0.0075,0.0675,-0.1425
795,-18,-2,-35,-145,,-4.5,-0.5,-8.75,-36.25,,-0.0045,-0.0005,-0.00875,-0.03625,,-0.045,-0.005,-0.0875,-0.3625
796,-9,6,-43,-172,,-2.25,1.5,-10.75,-43,,-0.00225,0.0015,-0.01075,-0.043,,-0.0225,0.015,-0.1075,-0.43
797,15,10,-26,22,,3.75,2.5,-6.5,5.5,,0.00375,0.0025,-0.0065,0.0055,,0.0375,0.025,-0.065,0.055
798,17,10,-13,99,,4.25,2.5,-3.25,24.75,,0.00425,0.0025,-0.00325,0.02475,,0.0425,0.025,-0.0325,0.2475
799,13,-6,-10,69,,3.25,-1.5,-2.5,17.25,,0.00325,-0.0015,-0.0025,0.01725,,0.0325,-0.015,-0.025,0.1725
800,12,8,9,34,,3,2,2.25,8.5,,0.003,0.002,0.00225,0.0085,,0.03,0.02,0.0225,0.085
801,-1,-2,-10,9,,-0.25,-0.5,-2.5,2.25,,-0.00025,-0.0005,-0.0025,0.00225,,-0.0025,-0.005,-0.025,0.0225
802,-3,1,-39,2,,-0.75,0.25,-9.75,0.5,,-0.00075,0.00025,-0.00975,0.0005,,-0.0075,0.0025,-0.0975,0.005
803,-16,5,-138,7,,-4,1.25,-34.5,1.75,,-0.004,0.00125,-0.0345,0.00175,,-0.04,0.0125,-0.345,0.0175
804,-4,-10,73,10,,-1,-2.5,18.25,2.5,,-0.001,-0.0025,0.01825,0.0025,,-0.01,-0.025,0.1825,0.025
805,-14,-9,52,13,,-3.5,-2.25,13,3.25,,-0.0035,-0.00225,0.013,0.00325,,-0.035,-0.0225,0.13,0.0325
806,-14,-4,9,7,,-3.5,-1,2.25,1.75,,-0.0035,-0.001,0.00225,0.00175,,-0.035,-0.01,0.0225,0.0175
807,-2,-14,16,9,,-0.5,-3.5,4,2.25,,-0.0005,-0.0035,0.004,0.00225,,-0.005,-0.035,0.04,0.0225
808,4,-5,23,12,,1,-1.25,5.75,3,,0.001,-0.00125,0.00575,0.003,,0.01,-0.0125,0.0575,0.03
809,-10,8,-7,-7,,-2.5,2,-1.75,-1.75,,-0.0025,0.002,-0.00175,-0.00175,,-0.025,0.02,-0.0175,-0.0175
810,2,15,-1,1,,0.5,3.75,-0.25,0.25,,0.0005,0.00375,-0.00025,0.00025,,0.005,0.0375,-0.0025,0.0025
811,0,-10,23,4,,0,-2.5,5.75,1,,0,-0.0025,0.00575,0.001,,0,-0.025,0.0575,0.01
812,2,-4,-9,7,,0.5,-1,-2.25,1.75,,0.0005,-0.001,-0.00225,0.00175,,0.005,-0.01,-0.0225,0.0175
813,7,5,-54,2,,1.75,1.25,-13.5,0.5,,0.00175,0.00125,-0.0135,0.0005,,0.0175,0.0125,-0.135,0.005
814,12,3,-11,4,,3,0.75,-2.75,1,,0.003,0.00075,-0.00275,0.001,,0.03,0.0075,-0.0275,0.01
815,12,-9,-11,-74,,3,-2.25,-2.75,-18.5,,0.003,-0.00225,-0.00275,-0.0185,,0.03,-0.0225,-0.0275,-0.185
816,-12,-3,-11,-125,,-3,-0.75,-2.75,-31.25,,-0.003,-0.00075,-0.00275,-0.03125,,-0.03,-0.0075,-0.0275,-0.3125
817,-5,2,9,16,,-1.25,0.5,2.25,4,,-0.00125,0.0005,0.00225,0.004,,-0.0125,0.005,0.0225,0.04
818,7,-5,25,59,,1.75,-1.25,6.25,14.75,,0.00175,-0.00125,0.00625,0.01475,,0.0175,-0.0125,0.0625,0.1475
819,7,-5,2,34,,1.75,-1.25,0.5,8.5,,0.00175,-0.00125,0.0005,0.0085,,0.0175,-0.0125,0.005,0.085
820,-2,1,-18,25,,-0.5,0.25,-4.5,6.25,,-0.0005,0.00025,-0.0045,0.00625,,-0.005,0.0025,-0.045,0.0625
821,2,-2,-3,7,,0.5,-0.5,-0.75,1.75,,0.0005,-0.0005,-0.00075,0.00175,,0.005,-0.005,-0.0075,0.0175
822,4,12,36,5,,1,3,9,1.25,,0.001,0.003,0.009,0.00125,,0.01,0.03,0.09,0.0125
823,-8,-10,56,-5,,-2,-2.5,14,-1.25,,-0.002,-0.0025,0.014,-0.00125,,-0.02,-0.025,0.14,-0.0125
824,-12,-6,-20,-11,,-3,-1.5,-5,-2.75,,-0.003,-0.0015,-0.005,-0.00275,,-0.03,-0.015,-0.05,-0.0275
825,-6,5,-1,-9,,-1.5,1.25,-0.25,-2.25,,-0.0015,0.00125,-0.00025,-0.00225,,-0.015,0.0125,-0.0025,-0.0225
826,6,-5,60,16,,1.5,-1.25,15,4,,0.0015,-0.00125,0.015,0.004,,0.015,-0.0125,0.15,0.04
827,6,6,-41,2,,1.5,1.5,-10.25,0.5,,0.0015,0.0015,-0.01025,0.0005,,0.015,0.015,-0.1025,0.005
828,11,2,-29,-1,,2.75,0.5,-7.25,-0.25,,0.00275,0.0005,-0.00725,-0.00025,,0.0275,0.005,-0.0725,-0.0025
829,6,-1,-20,-12,,1.5,-0.25,-5,-3,,0.0015,-0.00025,-0.005,-0.003,,0.015,-0.0025,-0.05,-0.03
830,9,7,-28,12,,2.25,1.75,-7,3,,0.00225,0.00175,-0.007,0.003,,0.0225,0.0175,-0.07,0.03
831,11,6,-21,2,,2.75,1.5,-5.25,0.5,,0.00275,0.0015,-0.00525,0.0005,,0.0275,0.015,-0.0525,0.005
832,8,1,-30,4,,2,0.25,-7.5,1,,0.002,0.00025,-0.0075,0.001,,0.02,0.0025,-0.075,0.01
833,2,-3,-39,11,,0.5,-0.75,-9.75,2.75,,0.0005,-0.00075,-0.00975,0.00275,,0.005,-0.0075,-0.0975,0.0275
834,-5,2,-35,1,,-1.25,0.5,-8.75,0.25,,-0.00125,0.0005,-0.00875,0.00025,,-0.0125,0.005,-0.0875,0.0025
835,-1,-2,-5,4,,-0.25,-0.5,-1.25,1,,-0.00025,-0.0005,-0.00125,0.001,,-0.0025,-0.005,-0.0125,0.01
836,2,3,282,-10,,0.5,0.75,70.5,-2.5,,0.0005,0.00075,0.0705,-0.0025,,0.005,0.0075,0.705,-0.025
837,1,-2,4,-4,,0.25,-0.5,1,-1,,0.00025,-0.0005,0.001,-0.001,,0.0025,-0.005,0.01,-0.01
838,-7,-10,-81,7,,-1.75,-2.5,-20.25,1.75,,-0.00175,-0.0025,-0.02025,0.00175,,-0.0175,-0.025,-0.2025,0.0175
839,-7,-13,-19,-7,,-1.75,-3.25,-4.75,-1.75,,-0.00175,-0.00325,-0.00475,-0.00175,,-0.0175,-0.0325,-0.0475,-0.0175
840,-5,-2,10,-2,,-1.25,-0.5,2.5,-0.5,,-0.00125,-0.0005,0.0025,-0.0005,,-0.0125,-0.005,0.025,-0.005
841,-8,-3,-6,3,,-2,-0.75,-1.5,0.75,,-0.002,-0.00075,-0.0015,0.00075,,-0.02,-0.0075,-0.015,0.0075
842,-3,-3,-16,-5,,-0.75,-0.75,-4,-1.25,,-0.00075,-0.00075,-0.004,-0.00125,,-0.0075,-0.0075,-0.04,-0.0125
843,-6,-5,-8,1,,-1.5,-1.25,-2,0.25,,-0.0015,-0.00125,-0.002,0.00025,,-0.015,-0.0125,-0.02,0.0025
844,10,1,0,8,,2.5,0.25,0,2,,0.0025,0.00025,0,0.002,,0.025,0.0025,0,0.02
845,10,-4,-14,2,,2.5,-1,-3.5,0.5,,0.0025,-0.001,-0.0035,0.0005,,0.025,-0.01,-0.035,0.005
846,0,2,29,-4,,0,0.5,7.25,-1,,0,0.0005,0.00725,-0.001,,0,0.005,0.0725,-0.01
847,-20,5,186,-72,,-5,1.25,46.5,-18,,-0.005,0.00125,0.0465,-0.018,,-0.05,0.0125,0.465,-0.18
848,-1,12,-151,-44,,-0.25,3,-37.75,-11,,-0.00025,0.003,-0.03775,-0.011,,-0.0025,0.03,-0.3775,-0.11
849,23,8,-107,22,,5.75,2,-26.75,5.5,,0.00575,0.002,-0.02675,0.0055,,0.0575,0.02,-0.2675,0.055
850,17,4,-37,34,,4.25,1,-9.25,8.5,,0.00425,0.001,-0.00925,0.0085,,0.0425,0.01,-0.0925,0.085
851,3,2,-31,8,,0.75,0.5,-7.75,2,,0.00075,0.0005,-0.00775,0.002,,0.0075,0.005,-0.0775,0.02
852,-2,-10,22,13,,-0.5,-2.5,5.5,3.25,,-0.0005,-0.0025,0.0055,0.00325,,-0.005,-0.025,0.055,0.0325
853,-19,-7,-25,1,,-4.75,-1.75,-6.25,0.25,,-0.00475,-0.00175,-0.00625,0.00025,,-0.0475,-0.0175,-0.0625,0.0025
854,-6,5,-12,-31,,-1.5,1.25,-3,-7.75,,-0.0015,0.00125,-0.003,-0.00775,,-0.015,0.0125,-0.03,-0.0775
855,-23,-10,25,-168,,-5.75,-2.5,6.25,-42,,-0.00575,-0.0025,0.00625,-0.042,,-0.0575,-0.025,0.0625,-0.42
856,-8,-2,19,-77,,-2,-0.5,4.75,-19.25,,-0.002,-0.0005,0.00475,-0.01925,,-0.02,-0.005,0.0475,-0.1925
857,-2,-10,16,41,,-0.5,-2.5,4,10.25,,-0.0005,-0.0025,0.004,0.01025,,-0.005,-0.025,0.04,0.1025
858,9,8,9,101,,2.25,2,2.25,25.25,,0.00225,0.002,0.00225,0.02525,,0.0225,0.02,0.0225,0.2525
859,1,-3,-5,38,,0.25,-0.75,-1.25,9.5,,0.00025,-0.00075,-0.00125,0.0095,,0.0025,-0.0075,-0.0125,0.095
860,-8,2,-2,21,,-2,0.5,-0.5,5.25,,-0.002,0.0005,-0.0005,0.00525,,-0.02,0.005,-0.005,0.0525
861,6,9,-12,19,,1.5,2.25,-3,4.75,,0.0015,0.00225,-0.003,0.00475,,0.015,0.0225,-0.03,0.0475
862,4,-5,-19,9,,1,-1.25,-4.75,2.25,,0.001,-0.00125,-0.00475,0.00225,,0.01,-0.0125,-0.0475,0.0225
863,15,7,-10,13,,3.75,1.75,-2.5,3.25,,0.00375,0.00175,-0.0025,0.00325,,0.0375,0.0175,-0.025,0.0325
864,13,9,-29,14,,3.25,2.25,-7.25,3.5,,0.00325,0.00225,-0.00725,0.0035,,0.0325,0.0225,-0.0725,0.035
865,14,-3,-16,6,,3.5,-0.75,-4,1.5,,0.0035,-0.00075,-0.004,0.0015,,0.035,-0.0075,-0.04,0.015
866,11,8,-4,36,,2.75,2,-1,9,,0.00275,0.002,-0.001,0.009,,0.0275,0.02,-0.01,0.09
867,-1,7,-6,-12,,-0.25,1.75,-1.5,-3,,-0.00025,0.00175,-0.0015,-0.003,,-0.0025,0.0175,-0.015,-0.03
868,-3,2,-8,-10,,-0.75,0.5,-2,-2.5,,-0.00075,0.0005,-0.002,-0.0025,,-0.0075,0.005,-0.02,-0.025
869,-6,0,-14,2,,-1.5,0,-3.5,0.5,,-0.0015,0,-0.0035,0.0005,,-0.015,0,-0.035,0.005
870,-15,2,22,-9,,-3.75,0.5,5.5,-2.25,,-0.00375,0.0005,0.0055,-0.00225,,-0.0375,0.005,0.055,-0.0225
871,-8,7,78,14,,-2,1.75,19.5,3.5,,-0.002,0.00175,0.0195,0.0035,,-0.02,0.0175,0.195,0.035
872,-11,-8,1,-29,,-2.75,-2,0.25,-7.25,,-0.00275,-0.002,0.00025,-0.00725,,-0.0275,-0.02,0.0025,-0.0725
873,-20,-3,-22,-132,,-5,-0.75,-5.5,-33,,-0.005,-0.00075,-0.0055,-0.033,,-0.05,-0.0075,-0.055,-0.33
874,-17,0,14,-105,,-4.25,0,3.5,-26.25,,-0.00425,0,0.0035,-0.02625,,-0.0425,0,0.035,-0.2625
875,2,4,7,66,,0.5,1,1.75,16.5,,0.0005,0.001,0.00175,0.0165,,0.005,0.01,0.0175,0.165
876,8,0,-4,89,,2,0,-1,22.25,,0.002,0,-0.001,0.02225,,0.02,0,-0.01,0.2225
877,6,0,-11,48,,1.5,0,-2.75,12,,0.0015,0,-0.00275,0.012,,0.015,0,-0.0275,0.12
878,4,-3,-19,21,,1,-0.75,-4.75,5.25,,0.001,-0.00075,-0.00475,0.00525,,0.01,-0.0075,-0.0475,0.0525
879,-9,1,-26,-20,,-2.25,0.25,-6.5,-5,,-0.00225,0.00025,-0.0065,-0.005,,-0.0225,0.0025,-0.065,-0.05
880,1,-5,-37,-214,,0.25,-1.25,-9.25,-53.5,,0.00025,-0.00125,-0.00925,-0.0535,,0.0025,-0.0125,-0.0925,-0.535
881,-3,9,-31,-39,,-0.75,2.25,-7.75,-9.75,,-0.00075,0.00225,-0.00775,-0.00975,,-0.0075,0.0225,-0.0775,-0.0975
882,18,8,12,91,,4.5,2,3,22.75,,0.0045,0.002,0.003,0.02275,,0.045,0.02,0.03,0.2275
883,17,10,-8,66,,4.25,2.5,-2,16.5,,0.00425,0.0025,-0.002,0.0165,,0.0425,0.025,-0.02,0.165
884,16,-3,-43,45,,4,-0.75,-10.75,11.25,,0.004,-0.00075,-0.01075,0.01125,,0.04,-0.0075,-0.1075,0.1125
885,15,-5,17,30,,3.75,-1.25,4.25,7.5,,0.00375,-0.00125,0.00425,0.0075,,0.0375,-0.0125,0.0425,0.075
886,-8,-6,-135,-2,,-2,-1.5,-33.75,-0.5,,-0.002,-0.0015,-0.03375,-0.0005,,-0.02,-0.015,-0.3375,-0.005
887,-7,-5,4,-4,,-1.75,-1.25,1,-1,,-0.00175,-0.00125,0.001,-0.001,,-0.0175,-0.0125,0.01,-0.01
888,-14,-5,84,0,,-3.5,-1.25,21,0,,-0.0035,-0.00125,0.021,0,,-0.035,-0.0125,0.21,0
889,-21,-4,45,12,,-5.25,-1,11.25,3,,-0.00525,-0.001,0.01125,0.003,,-0.0525,-0.01,0.1125,0.03
890,-7,-3,24,1,,-1.75,-0.75,6,0.25,,-0.00175,-0.00075,0.006,0.00025,,-0.0175,-0.0075,0.06,0.0025
891,-5,-10,12,1,,-1.25,-2.5,3,0.25,,-0.00125,-0.0025,0.003,0.00025,,-0.0125,-0.025,0.03,0.0025
892,-1,-5,14,7,,-0.25,-1.25,3.5,1.75,,-0.00025,-0.00125,0.0035,0.00175,,-0.0025,-0.0125,0.035,0.0175
893,5,-3,1,-3,,1.25,-0.75,0.25,-0.75,,0.00125,-0.00075,0.00025,-0.00075,,0.0125,-0.0075,0.0025,-0.0075
894,6,-4,-4,2,,1.5,-1,-1,0.5,,0.0015,-0.001,-0.001,0.0005,,0.015,-0.01,-0.01,0.005
895,3,3,-6,13,,0.75,0.75,-1.5,3.25,,0.00075,0.00075,-0.0015,0.00325,,0.0075,0.0075,-0.015,0.0325
896,4,-10,-13,-2,,1,-2.5,-3.25,-0.5,,0.001,-0.0025,-0.00325,-0.0005,,0.01,-0.025,-0.0325,-0.005
897,9,7,-28,5,,2.25,1.75,-7,1.25,,0.00225,0.00175,-0.007,0.00125,,0.0225,0.0175,-0.07,0.0125
898,22,-3,-23,-1,,5.5,-0.75,-5.75,-0.25,,0.0055,-0.00075,-0.00575,-0.00025,,0.055,-0.0075,-0.0575,-0.0025
899,12,-3,-29,11,,3,-0.75,-7.25,2.75,,0.003,-0.00075,-0.00725,0.00275,,0.03,-0.0075,-0.0725,0.0275
900,9,-9,-18,12,,2.25,-2.25,-4.5,3,,0.00225,-0.00225,-0.0045,0.003,,0.0225,-0.0225,-0.045,0.03
901,-1,-2,189,-9,,-0.25,-0.5,47.25,-2.25,,-0.00025,-0.0005,0.04725,-0.00225,,-0.0025,-0.005,0.4725,-0.0225
902,-1,-1,70,-1,,-0.25,-0.25,17.5,-0.25,,-0.00025,-0.00025,0.0175,-0.00025,,-0.0025,-0.0025,0.175,-0.0025
903,-11,-13,-85,5,,-2.75,-3.25,-21.25,1.25,,-0.00275,-0.00325,-0.02125,0.00125,,-0.0275,-0.0325,-0.2125,0.0125
904,5,-1,37,6,,1.25,-0.25,9.25,1.5,,0.00125,-0.00025,0.00925,0.0015,,0.0125,-0.0025,0.0925,0.015
905,-2,-7,-8,9,,-0.5,-1.75,-2,2.25,,-0.0005,-0.00175,-0.002,0.00225,,-0.005,-0.0175,-0.02,0.0225
906,-7,-4,-29,9,,-1.75,-1,-7.25,2.25,,-0.00175,-0.001,-0.00725,0.00225,,-0.0175,-0.01,-0.0725,0.0225
907,-5,0,19,5,,-1.25,0,4.75,1.25,,-0.00125,0,0.00475,0.00125,,-0.0125,0,0.0475,0.0125
908,-2,-7,78,4,,-0.5,-1.75,19.5,1,,-0.0005,-0.00175,0.0195,0.001,,-0.005,-0.0175,0.195,0.01
909,-15,-6,2,-103,,-3.75,-1.5,0.5,-25.75,,-0.00375,-0.0015,0.0005,-0.02575,,-0.0375,-0.015,0.005,-0.2575
910,-36,10,-15,-127,,-9,2.5,-3.75,-31.75,,-0.009,0.0025,-0.00375,-0.03175,,-0.09,0.025,-0.0375,-0.3175
911,-21,-6,-6,-112,,-5.25,-1.5,-1.5,-28,,-0.00525,-0.0015,-0.0015,-0.028,,-0.0525,-0.015,-0.015,-0.28
912,15,2,-43,80,,3.75,0.5,-10.75,20,,0.00375,0.0005,-0.01075,0.02,,0.0375,0.005,-0.1075,0.2
913,29,-2,29,111,,7.25,-0.5,7.25,27.75,,0.00725,-0.0005,0.00725,0.02775,,0.0725,-0.005,0.0725,0.2775
914,23,3,43,59,,5.75,0.75,10.75,14.75,,0.00575,0.00075,0.01075,0.01475,,0.0575,0.0075,0.1075,0.1475
915,16,8,-46,30,,4,2,-11.5,7.5,,0.004,0.002,-0.0115,0.0075,,0.04,0.02,-0.115,0.075
916,7,8,-45,12,,1.75,2,-11.25,3,,0.00175,0.002,-0.01125,0.003,,0.0175,0.02,-0.1125,0.03
917,-4,10,-20,17,,-1,2.5,-5,4.25,,-0.001,0.0025,-0.005,0.00425,,-0.01,0.025,-0.05,0.0425
918,7,5,-12,12,,1.75,1.25,-3,3,,0.00175,0.00125,-0.003,0.003,,0.0175,0.0125,-0.03,0.03
919,-5,-6,17,13,,-1.25,-1.5,4.25,3.25,,-0.00125,-0.0015,0.00425,0.00325,,-0.0125,-0.015,0.0425,0.0325
920,-6,-13,15,6,,-1.5,-3.25,3.75,1.5,,-0.0015,-0.00325,0.00375,0.0015,,-0.015,-0.0325,0.0375,0.015
921,-11,3,19,-9,,-2.75,0.75,4.75,-2.25,,-0.00275,0.00075,0.00475,-0.00225,,-0.0275,0.0075,0.0475,-0.0225
922,-10,4,8,10,,-2.5,1,2,2.5,,-0.0025,0.001,0.002,0.0025,,-0.025,0.01,0.02,0.025
923,-5,-13,18,1,,-1.25,-3.25,4.5,0.25,,-0.00125,-0.00325,0.0045,0.00025,,-0.0125,-0.0325,0.045,0.0025
924,2,-2,48,-5,,0.5,-0.5,12,-1.25,,0.0005,-0.0005,0.012,-0.00125,,0.005,-0.005,0.12,-0.0125
925,2,-5,47,-49,,0.5,-1.25,11.75,-12.25,,0.0005,-0.00125,0.01175,-0.01225,,0.005,-0.0125,0.1175,-0.1225
926,-13,-1,1,-66,,-3.25,-0.25,0.25,-16.5,,-0.00325,-0.00025,0.00025,-0.0165,,-0.0325,-0.0025,0.0025,-0.165
927,-10,5,-8,-30,,-2.5,1.25,-2,-7.5,,-0.0025,0.00125,-0.002,-0.0075,,-0.025,0.0125,-0.02,-0.075
928,12,5,-20,50,,3,1.25,-5,12.5,,0.003,0.00125,-0.005,0.0125,,0.03,0.0125,-0.05,0.125
929,7,6,-9,38,,1.75,1.5,-2.25,9.5,,0.00175,0.0015,-0.00225,0.0095,,0.0175,0.015,-0.0225,0.095
930,3,-7,-21,32,,0.75,-1.75,-5.25,8,,0.00075,-0.00175,-0.00525,0.008,,0.0075,-0.0175,-0.0525,0.08
931,6,3,-8,10,,1.5,0.75,-2,2.5,,0.0015,0.00075,-0.002,0.0025,,0.015,0.0075,-0.02,0.025
932,15,4,-43,17,,3.75,1,-10.75,4.25,,0.00375,0.001,-0.01075,0.00425,,0.0375,0.01,-0.1075,0.0425
933,10,-9,0,-10,,2.5,-2.25,0,-2.5,,0.0025,-0.00225,0,-0.0025,,0.025,-0.0225,0,-0.025
934,4,2,-11,-12,,1,0.5,-2.75,-3,,0.001,0.0005,-0.00275,-0.003,,0.01,0.005,-0.0275,-0.03
935,3,0,-2,6,,0.75,0,-0.5,1.5,,0.00075,0,-0.0005,0.0015,,0.0075,0,-0.005,0.015
936,0,-3,22,14,,0,-0.75,5.5,3.5,,0,-0.00075,0.0055,0.0035,,0,-0.0075,0.055,0.035
937,-11,-5,25,13,,-2.75,-1.25,6.25,3.25,,-0.00275,-0.00125,0.00625,0.00325,,-0.0275,-0.0125,0.0625,0.0325
938,-7,-4,-25,1,,-1.75,-1,-6.25,0.25,,-0.00175,-0.001,-0.00625,0.00025,,-0.0175,-0.01,-0.0625,0.0025
939,-9,3,2,-6,,-2.25,0.75,0.5,-1.5,,-0.00225,0.00075,0.0005,-0.0015,,-0.0225,0.0075,0.005,-0.015
940,-7,-8,42,6,,-1.75,-2,10.5,1.5,,-0.00175,-0.002,0.0105,0.0015,,-0.0175,-0.02,0.105,0.015
941,0,3,82,9,,0,0.75,20.5,2.25,,0,0.00075,0.0205,0.00225,,0,0.0075,0.205,0.0225
942,8,-8,54,2,,2,-2,13.5,0.5,,0.002,-0.002,0.0135,0.0005,,0.02,-0.02,0.135,0.005
943,-7,4,92,-3,,-1.75,1,23,-0.75,,-0.00175,0.001,0.023,-0.00075,,-0.0175,0.01,0.23,-0.0075
944,2,10,-1,-15,,0.5,2.5,-0.25,-3.75,,0.0005,0.0025,-0.00025,-0.00375,,0.005,0.025,-0.0025,-0.0375
945,-2,-1,62,4,,-0.5,-0.25,15.5,1,,-0.0005,-0.00025,0.0155,0.001,,-0.005,-0.0025,0.155,0.01
946,18,-11,82,7,,4.5,-2.75,20.5,1.75,,0.0045,-0.00275,0.0205,0.00175,,0.045,-0.0275,0.205,0.0175
947,34,-5,-93,16,,8.5,-1.25,-23.25,4,,0.0085,-0.00125,-0.02325,0.004,,0.085,-0.0125,-0.2325,0.04
948,24,-4,-91,38,,6,-1,-22.75,9.5,,0.006,-0.001,-0.02275,0.0095,,0.06,-0.01,-0.2275,0.095
949,-2,5,-53,-29,,-0.5,1.25,-13.25,-7.25,,-0.0005,0.00125,-0.01325,-0.00725,,-0.005,0.0125,-0.1325,-0.0725
950,0,6,-36,-11,,0,1.5,-9,-2.75,,0,0.0015,-0.009,-0.00275,,0,0.015,-0.09,-0.0275
951,-1,0,-30,5,,-0.25,0,-7.5,1.25,,-0.00025,0,-0.0075,0.00125,,-0.0025,0,-0.075,0.0125
952,-3,-7,4,5,,-0.75,-1.75,1,1.25,,-0.00075,-0.00175,0.001,0.00125,,-0.0075,-0.0175,0.01,0.0125
953,7,-3,67,3,,1.75,-0.75,16.75,0.75,,0.00175,-0.00075,0.01675,0.00075,,0.0175,-0.0075,0.1675,0.0075
954,-17,6,2,-6,,-4.25,1.5,0.5,-1.5,,-0.00425,0.0015,0.0005,-0.0015,,-0.0425,0.015,0.005,-0.015
955,-9,-6,40,1,,-2.25,-1.5,10,0.25,,-0.00225,-0.0015,0.01,0.00025,,-0.0225,-0.015,0.1,0.0025
956,3,-11,77,2,,0.75,-2.75,19.25,0.5,,0.00075,-0.00275,0.01925,0.0005,,0.0075,-0.0275,0.1925,0.005
957,-8,1,16,9,,-2,0.25,4,2.25,,-0.002,0.00025,0.004,0.00225,,-0.02,0.0025,0.04,0.0225
958,-7,0,-24,-5,,-1.75,0,-6,-1.25,,-0.00175,0,-0.006,-0.00125,,-0.0175,0,-0.06,-0.0125
959,2,10,-16,-1,,0.5,2.5,-4,-0.25,,0.0005,0.0025,-0.004,-0.00025,,0.005,0.025,-0.04,-0.0025
960,5,6,-1,-16,,1.25,1.5,-0.25,-4,,0.00125,0.0015,-0.00025,-0.004,,0.0125,0.015,-0.0025,-0.04
961,2,1,-12,-2,,0.5,0.25,-3,-0.5,,0.0005,0.00025,-0.003,-0.0005,,0.005,0.0025,-0.03,-0.005
962,9,10,-20,17,,2.25,2.5,-5,4.25,,0.00225,0.0025,-0.005,0.00425,,0.0225,0.025,-0.05,0.0425
963,15,-8,-10,15,,3.75,-2,-2.5,3.75,,0.00375,-0.002,-0.0025,0.00375,,0.0375,-0.02,-0.025,0.0375
964,15,2,-16,17,,3.75,0.5,-4,4.25,,0.00375,0.0005,-0.004,0.00425,,0.0375,0.005,-0.04,0.0425
965,20,8,-16,11,,5,2,-4,2.75,,0.005,0.002,-0.004,0.00275,,0.05,0.02,-0.04,0.0275
966,8,-1,-19,3,,2,-0.25,-4.75,0.75,,0.002,-0.00025,-0.00475,0.00075,,0.02,-0.0025,-0.0475,0.0075
967,0,-4,-17,-9,,0,-1,-4.25,-2.25,,0,-0.001,-0.00425,-0.00225,,0,-0.01,-0.0425,-0.0225
968,0,1,-15,-6,,0,0.25,-3.75,-1.5,,0,0.00025,-0.00375,-0.0015,,0,0.0025,-0.0375,-0.015
969,-3,-3,-1,12,,-0.75,-0.75,-0.25,3,,-0.00075,-0.00075,-0.00025,0.003,,-0.0075,-0.0075,-0.0025,0.03
970,-14,-4,8,8,,-3.5,-1,2,2,,-0.0035,-0.001,0.002,0.002,,-0.035,-0.01,0.02,0.02
971,-6,-3,12,2,,-1.5,-0.75,3,0.5,,-0.0015,-0.00075,0.003,0.0005,,-0.015,-0.0075,0.03,0.005
972,-5,-8,34,11,,-1.25,-2,8.5,2.75,,-0.00125,-0.002,0.0085,0.00275,,-0.0125,-0.02,0.085,0.0275
973,-5,-9,40,3,,-1.25,-2.25,10,0.75,,-0.00125,-0.00225,0.01,0.00075,,-0.0125,-0.0225,0.1,0.0075
974,2,0,19,-11,,0.5,0,4.75,-2.75,,0.0005,0,0.00475,-0.00275,,0.005,0,0.0475,-0.0275
975,-15,-3,26,-3,,-3.75,-0.75,6.5,-0.75,,-0.00375,-0.00075,0.0065,-0.00075,,-0.0375,-0.0075,0.065,-0.0075
976,0,6,55,13,,0,1.5,13.75,3.25,,0,0.0015,0.01375,0.00325,,0,0.015,0.1375,0.0325
977,19,-8,-7,24,,4.75,-2,-1.75,6,,0.00475,-0.002,-0.00175,0.006,,0.0475,-0.02,-0.0175,0.06
978,5,7,-21,5,,1.25,1.75,-5.25,1.25,,0.00125,0.00175,-0.00525,0.00125,,0.0125,0.0175,-0.0525,0.0125
979,-4,3,-30,-6,,-1,0.75,-7.5,-1.5,,-0.001,0.00075,-0.0075,-0.0015,,-0.01,0.0075,-0.075,-0.015
980,5,8,-22,11,,1.25,2,-5.5,2.75,,0.00125,0.002,-0.0055,0.00275,,0.0125,0.02,-0.055,0.0275
981,2,2,-2,5,,0.5,0.5,-0.5,1.25,,0.0005,0.0005,-0.0005,0.00125,,0.005,0.005,-0.005,0.0125
982,12,4,-44,-1,,3,1,-11,-0.25,,0.003,0.001,-0.011,-0.00025,,0.03,0.01,-0.11,-0.0025
983,4,7,-7,14,,1,1.75,-1.75,3.5,,0.001,0.00175,-0.00175,0.0035,,0.01,0.0175,-0.0175,0.035
984,-7,8,-1,5,,-1.75,2,-0.25,1.25,,-0.00175,0.002,-0.00025,0.00125,,-0.0175,0.02,-0.0025,0.0125
985,12,1,-1,2,,3,0.25,-0.25,0.5,,0.003,0.00025,-0.00025,0.0005,,0.03,0.0025,-0.0025,0.005
986,-10,2,-14,-1,,-2.5,0.5,-3.5,-0.25,,-0.0025,0.0005,-0.0035,-0.00025,,-0.025,0.005,-0.035,-0.0025
987,-6,3,3,-7,,-1.5,0.75,0.75,-1.75,,-0.0015,0.00075,0.00075,-0.00175,,-0.015,0.0075,0.0075,-0.0175
988,-9,0,33,-1,,-2.25,0,8.25,-0.25,,-0.00225,0,0.00825,-0.00025,,-0.0225,0,0.0825,-0.0025
989,-11,-5,25,6,,-2.75,-1.25,6.25,1.5,,-0.00275,-0.00125,0.00625,0.0015,,-0.0275,-0.0125,0.0625,0.015
990,-24,3,11,-4,,-6,0.75,2.75,-1,,-0.006,0.00075,0.00275,-0.001,,-0.06,0.0075,0.0275,-0.01
991,-7,0,6,10,,-1.75,0,1.5,2.5,,-0.00175,0,0.0015,0.0025,,-0.0175,0,0.015,0.025
992,-5,-1,13,6,,-1.25,-0.25,3.25,1.5,,-0.00125,-0.00025,0.00325,0.0015,,-0.0125,-0.0025,0.0325,0.015
993,-8,-2,-3,8,,-2,-0.5,-0.75,2,,-0.002,-0.0005,-0.00075,0.002,,-0.02,-0.005,-0.0075,0.02
994,11,3,-3,0,,2.75,0.75,-0.75,0,,0.00275,0.00075,-0.00075,0,,0.0275,0.0075,-0.0075,0
995,10,1,-5,-14,,2.5,0.25,-1.25,-3.5,,0.0025,0.00025,-0.00125,-0.0035,,0.025,0.0025,-0.0125,-0.035
996,21,1,-8,0,,5.25,0.25,-2,0,,0.00525,0.00025,-0.002,0,,0.0525,0.0025,-0.02,0
997,2,4,-36,14,,0.5,1,-9,3.5,,0.0005,0.001,-0.009,0.0035,,0.005,0.01,-0.09,0.035
998,10,9,-32,9,,2.5,2.25,-8,2.25,,0.0025,0.00225,-0.008,0.00225,,0.025,0.0225,-0.08,0.0225
999,12,-3,-19,14,,3,-0.75,-4.75,3.5,,0.003,-0.00075,-0.00475,0.0035,,0.03,-0.0075,-0.0475,0.035
1000,9,2,14,5,,2.25,0.5,3.5,1.25,,0.00225,0.0005,0.0035,0.00125,,0.0225,0.005,0.035,0.0125
1001,7,-1,9,9,,1.75,-0.25,2.25,2.25,,0.00175,-0.00025,0.00225,0.00225,,0.0175,-0.0025,0.0225,0.0225
1002,2,2,-19,11,,0.5,0.5,-4.75,2.75,,0.0005,0.0005,-0.00475,0.00275,,0.005,0.005,-0.0475,0.0275
1003,-8,-9,-25,-5,,-2,-2.25,-6.25,-1.25,,-0.002,-0.00225,-0.00625,-0.00125,,-0.02,-0.0225,-0.0625,-0.0125
1004,-9,-5,221,-16,,-2.25,-1.25,55.25,-4,,-0.00225,-0.00125,0.05525,-0.004,,-0.0225,-0.0125,0.5525,-0.04
1005,-6,-3,62,1,,-1.5,-0.75,15.5,0.25,,-0.0015,-0.00075,0.0155,0.00025,,-0.015,-0.0075,0.155,0.0025
1006,4,-3,-62,-10,,1,-0.75,-15.5,-2.5,,0.001,-0.00075,-0.0155,-0.0025,,0.01,-0.0075,-0.155,-0.025
1007,-8,-3,-38,8,,-2,-0.75,-9.5,2,,-0.002,-0.00075,-0.0095,0.002,,-0.02,-0.0075,-0.095,0.02
1008,-13,-1,-2,7,,-3.25,-0.25,-0.5,1.75,,-0.00325,-0.00025,-0.0005,0.00175,,-0.0325,-0.0025,-0.005,0.0175
1009,-4,0,21,12,,-1,0,5.25,3,,-0.001,0,0.00525,0.003,,-0.01,0,0.0525,0.03
1010,-1,-3,5,0,,-0.25,-0.75,1.25,0,,-0.00025,-0.00075,0.00125,0,,-0.0025,-0.0075,0.0125,0
1011,6,6,-7,2,,1.5,1.5,-1.75,0.5,,0.0015,0.0015,-0.00175,0.0005,,0.015,0.015,-0.0175,0.005
1012,7,-1,-14,3,,1.75,-0.25,-3.5,0.75,,0.00175,-0.00025,-0.0035,0.00075,,0.0175,-0.0025,-0.035,0.0075
1013,3,-2,-25,-1,,0.75,-0.5,-6.25,-0.25,,0.00075,-0.0005,-0.00625,-0.00025,,0.0075,-0.005,-0.0625,-0.0025
1014,3,1,-16,7,,0.75,0.25,-4,1.75,,0.00075,0.00025,-0.004,0.00175,,0.0075,0.0025,-0.04,0.0175
1015,8,1,-1,-51,,2,0.25,-0.25,-12.75,,0.002,0.00025,-0.00025,-0.01275,,0.02,0.0025,-0.0025,-0.1275
1016,-8,4,-52,-133,,-2,1,-13,-33.25,,-0.002,0.001,-0.013,-0.03325,,-0.02,0.01,-0.13,-0.3325
1017,-8,4,-147,-101,,-2,1,-36.75,-25.25,,-0.002,0.001,-0.03675,-0.02525,,-0.02,0.01,-0.3675,-0.2525
1018,-1,3,41,70,,-0.25,0.75,10.25,17.5,,-0.00025,0.00075,0.01025,0.0175,,-0.0025,0.0075,0.1025,0.175
1019,2,-8,75,76,,0.5,-2,18.75,19,,0.0005,-0.002,0.01875,0.019,,0.005,-0.02,0.1875,0.19
1020,10,1,70,48,,2.5,0.25,17.5,12,,0.0025,0.00025,0.0175,0.012,,0.025,0.0025,0.175,0.12
1021,-7,-10,10,27,,-1.75,-2.5,2.5,6.75,,-0.00175,-0.0025,0.0025,0.00675,,-0.0175,-0.025,0.025,0.0675
1022,-11,9,17,5,,-2.75,2.25,4.25,1.25,,-0.00275,0.00225,0.00425,0.00125,,-0.0275,0.0225,0.0425,0.0125
1023,-9,8,88,-4,,-2.25,2,22,-1,,-0.00225,0.002,0.022,-0.001,,-0.0225,0.02,0.22,-0.01
1024,-14,-9,67,11,,-3.5,-2.25,16.75,2.75,,-0.0035,-0.00225,0.01675,0.00275,,-0.035,-0.0225,0.1675,0.0275
1025,-7,-6,5,2,,-1.75,-1.5,1.25,0.5,,-0.00175,-0.0015,0.00125,0.0005,,-0.0175,-0.015,0.0125,0.005
1026,-2,7,-27,11,,-0.5,1.75,-6.75,2.75,,-0.0005,0.00175,-0.00675,0.00275,,-0.005,0.0175,-0.0675,0.0275
1027,3,9,27,14,,0.75,2.25,6.75,3.5,,0.00075,0.00225,0.00675,0.0035,,0.0075,0.0225,0.0675,0.035
1028,2,2,35,13,,0.5,0.5,8.75,3.25,,0.0005,0.0005,0.00875,0.00325,,0.005,0.005,0.0875,0.0325
1029,8,1,22,5,,2,0.25,5.5,1.25,,0.002,0.00025,0.0055,0.00125,,0.02,0.0025,0.055,0.0125
1030,10,5,18,13,,2.5,1.25,4.5,3.25,,0.0025,0.00125,0.0045,0.00325,,0.025,0.0125,0.045,0.0325
1031,11,8,-36,14,,2.75,2,-9,3.5,,0.00275,0.002,-0.009,0.0035,,0.0275,0.02,-0.09,0.035
1032,10,3,-54,5,,2.5,0.75,-13.5,1.25,,0.0025,0.00075,-0.0135,0.00125,,0.025,0.0075,-0.135,0.0125
1033,10,-3,22,47,,2.5,-0.75,5.5,11.75,,0.0025,-0.00075,0.0055,0.01175,,0.025,-0.0075,0.055,0.1175
1034,7,-2,-11,1,,1.75,-0.5,-2.75,0.25,,0.00175,-0.0005,-0.00275,0.00025,,0.0175,-0.005,-0.0275,0.0025
1035,-10,5,-40,-9,,-2.5,1.25,-10,-2.25,,-0.0025,0.00125,-0.01,-0.00225,,-0.025,0.0125,-0.1,-0.0225
1036,-6,3,35,10,,-1.5,0.75,8.75,2.5,,-0.0015,0.00075,0.00875,0.0025,,-0.015,0.0075,0.0875,0.025
1037,-8,-4,97,-8,,-2,-1,24.25,-2,,-0.002,-0.001,0.02425,-0.002,,-0.02,-0.01,0.2425,-0.02
1038,-16,3,167,5,,-4,0.75,41.75,1.25,,-0.004,0.00075,0.04175,0.00125,,-0.04,0.0075,0.4175,0.0125
1039,-13,3,-102,9,,-3.25,0.75,-25.5,2.25,,-0.00325,0.00075,-0.0255,0.00225,,-0.0325,0.0075,-0.255,0.0225
1040,-3,-2,-62,4,,-0.75,-0.5,-15.5,1,,-0.00075,-0.0005,-0.0155,0.001,,-0.0075,-0.005,-0.155,0.01
1041,-14,5,38,6,,-3.5,1.25,9.5,1.5,,-0.0035,0.00125,0.0095,0.0015,,-0.035,0.0125,0.095,0.015
1042,-12,-2,20,-17,,-3,-0.5,5,-4.25,,-0.003,-0.0005,0.005,-0.00425,,-0.03,-0.005,0.05,-0.0425
1043,-9,-4,-14,-12,,-2.25,-1,-3.5,-3,,-0.00225,-0.001,-0.0035,-0.003,,-0.0225,-0.01,-0.035,-0.03
1044,2,4,10,0,,0.5,1,2.5,0,,0.0005,0.001,0.0025,0,,0.005,0.01,0.025,0
1045,16,-1,44,21,,4,-0.25,11,5.25,,0.004,-0.00025,0.011,0.00525,,0.04,-0.0025,0.11,0.0525
1046,-5,-3,265,5,,-1.25,-0.75,66.25,1.25,,-0.00125,-0.00075,0.06625,0.00125,,-0.0125,-0.0075,0.6625,0.0125
1047,4,2,-71,-28,,1,0.5,-17.75,-7,,0.001,0.0005,-0.01775,-0.007,,0.01,0.005,-0.1775,-0.07
1048,-4,-2,-136,-76,,-1,-0.5,-34,-19,,-0.001,-0.0005,-0.034,-0.019,,-0.01,-0.005,-0.34,-0.19
1049,-4,-5,-94,-20,,-1,-1.25,-23.5,-5,,-0.001,-0.00125,-0.0235,-0.005,,-0.01,-0.0125,-0.235,-0.05
1050,12,-4,-19,72,,3,-1,-4.75,18,,0.003,-0.001,-0.00475,0.018,,0.03,-0.01,-0.0475,0.18
1051,-1,-7,38,53,,-0.25,-1.75,9.5,13.25,,-0.00025,-0.00175,0.0095,0.01325,,-0.0025,-0.0175,0.095,0.1325
1052,-8,2,0,22,,-2,0.5,0,5.5,,-0.002,0.0005,0,0.0055,,-0.02,0.005,0,0.055
1053,2,-1,15,9,,0.5,-0.25,3.75,2.25,,0.0005,-0.00025,0.00375,0.00225,,0.005,-0.0025,0.0375,0.0225
1054,10,-8,1,-4,,2.5,-2,0.25,-1,,0.0025,-0.002,0.00025,-0.001,,0.025,-0.02,0.0025,-0.01
1055,0,-3,21,-6,,0,-0.75,5.25,-1.5,,0,-0.00075,0.00525,-0.0015,,0,-0.0075,0.0525,-0.015
1056,-20,-7,52,12,,-5,-1.75,13,3,,-0.005,-0.00175,0.013,0.003,,-0.05,-0.0175,0.13,0.03
1057,-15,-10,81,9,,-3.75,-2.5,20.25,2.25,,-0.00375,-0.0025,0.02025,0.00225,,-0.0375,-0.025,0.2025,0.0225
1058,13,-6,-26,-10,,3.25,-1.5,-6.5,-2.5,,0.00325,-0.0015,-0.0065,-0.0025,,0.0325,-0.015,-0.065,-0.025
1059,14,-14,-26,29,,3.5,-3.5,-6.5,7.25,,0.0035,-0.0035,-0.0065,0.00725,,0.035,-0.035,-0.065,0.0725
1060,10,3,4,18,,2.5,0.75,1,4.5,,0.0025,0.00075,0.001,0.0045,,0.025,0.0075,0.01,0.045
1061,0,10,-3,-4,,0,2.5,-0.75,-1,,0,0.0025,-0.00075,-0.001,,0,0.025,-0.0075,-0.01
1062,-4,-5,13,10,,-1,-1.25,3.25,2.5,,-0.001,-0.00125,0.00325,0.0025,,-0.01,-0.0125,0.0325,0.025
1063,11,4,-15,13,,2.75,1,-3.75,3.25,,0.00275,0.001,-0.00375,0.00325,,0.0275,0.01,-0.0375,0.0325
1064,-3,-7,-156,9,,-0.75,-1.75,-39,2.25,,-0.00075,-0.00175,-0.039,0.00225,,-0.0075,-0.0175,-0.39,0.0225
1065,8,16,5,4,,2,4,1.25,1,,0.002,0.004,0.00125,0.001,,0.02,0.04,0.0125,0.01
1066,13,0,53,-7,,3.25,0,13.25,-1.75,,0.00325,0,0.01325,-0.00175,,0.0325,0,0.1325,-0.0175
1067,2,-3,17,18,,0.5,-0.75,4.25,4.5,,0.0005,-0.00075,0.00425,0.0045,,0.005,-0.0075,0.0425,0.045
1068,-4,-2,-3,19,,-1,-0.5,-0.75,4.75,,-0.001,-0.0005,-0.00075,0.00475,,-0.01,-0.005,-0.0075,0.0475
1069,2,7,34,-5,,0.5,1.75,8.5,-1.25,,0.0005,0.00175,0.0085,-0.00125,,0.005,0.0175,0.085,-0.0125
1070,-2,-4,8,-1,,-0.5,-1,2,-0.25,,-0.0005,-0.001,0.002,-0.00025,,-0.005,-0.01,0.02,-0.0025
1071,-5,0,-10,14,,-1.25,0,-2.5,3.5,,-0.00125,0,-0.0025,0.0035,,-0.0125,0,-0.025,0.035
1072,-5,-13,9,-4,,-1.25,-3.25,2.25,-1,,-0.00125,-0.00325,0.00225,-0.001,,-0.0125,-0.0325,0.0225,-0.01
1073,6,-5,11,-11,,1.5,-1.25,2.75,-2.75,,0.0015,-0.00125,0.00275,-0.00275,,0.015,-0.0125,0.0275,-0.0275
1074,-16,3,13,1,,-4,0.75,3.25,0.25,,-0.004,0.00075,0.00325,0.00025,,-0.04,0.0075,0.0325,0.0025
1075,-2,7,2,6,,-0.5,1.75,0.5,1.5,,-0.0005,0.00175,0.0005,0.0015,,-0.005,0.0175,0.005,0.015
1076,2,-2,-30,-8,,0.5,-0.5,-7.5,-2,,0.0005,-0.0005,-0.0075,-0.002,,0.005,-0.005,-0.075,-0.02
1077,11,2,3,14,,2.75,0.5,0.75,3.5,,0.00275,0.0005,0.00075,0.0035,,0.0275,0.005,0.0075,0.035
1078,8,-4,1,14,,2,-1,0.25,3.5,,0.002,-0.001,0.00025,0.0035,,0.02,-0.01,0.0025,0.035
1079,-5,1,-38,33,,-1.25,0.25,-9.5,8.25,,-0.00125,0.00025,-0.0095,0.00825,,-0.0125,0.0025,-0.095,0.0825
1080,-2,5,11,-32,,-0.5,1.25,2.75,-8,,-0.0005,0.00125,0.00275,-0.008,,-0.005,0.0125,0.0275,-0.08
1081,-19,6,10,-163,,-4.75,1.5,2.5,-40.75,,-0.00475,0.0015,0.0025,-0.04075,,-0.0475,0.015,0.025,-0.4075
1082,-17,-3,12,-98,,-4.25,-0.75,3,-24.5,,-0.00425,-0.00075,0.003,-0.0245,,-0.0425,-0.0075,0.03,-0.245
1083,15,5,192,55,,3.75,1.25,48,13.75,,0.00375,0.00125,0.048,0.01375,,0.0375,0.0125,0.48,0.1375
1084,34,2,84,69,,8.5,0.5,21,17.25,,0.0085,0.0005,0.021,0.01725,,0.085,0.005,0.21,0.1725
1085,17,-10,-126,17,,4.25,-2.5,-31.5,4.25,,0.00425,-0.0025,-0.0315,0.00425,,0.0425,-0.025,-0.315,0.0425
1086,-1,-1,-29,22,,-0.25,-0.25,-7.25,5.5,,-0.00025,-0.00025,-0.00725,0.0055,,-0.0025,-0.0025,-0.0725,0.055
1087,3,0,-12,38,,0.75,0,-3,9.5,,0.00075,0,-0.003,0.0095,,0.0075,0,-0.03,0.095
1088,-8,4,-13,21,,-2,1,-3.25,5.25,,-0.002,0.001,-0.00325,0.00525,,-0.02,0.01,-0.0325,0.0525
1089,-16,-2,10,8,,-4,-0.5,2.5,2,,-0.004,-0.0005,0.0025,0.002,,-0.04,-0.005,0.025,0.02
1090,1,5,17,5,,0.25,1.25,4.25,1.25,,0.00025,0.00125,0.00425,0.00125,,0.0025,0.0125,0.0425,0.0125
1091,-5,7,17,-3,,-1.25,1.75,4.25,-0.75,,-0.00125,0.00175,0.00425,-0.00075,,-0.0125,0.0175,0.0425,-0.0075
1092,-3,5,13,16,,-0.75,1.25,3.25,4,,-0.00075,0.00125,0.00325,0.004,,-0.0075,0.0125,0.0325,0.04
1093,-1,-2,1,13,,-0.25,-0.5,0.25,3.25,,-0.00025,-0.0005,0.00025,0.00325,,-0.0025,-0.005,0.0025,0.0325
1094,6,1,-13,12,,1.5,0.25,-3.25,3,,0.0015,0.00025,-0.00325,0.003,,0.015,0.0025,-0.0325,0.03
1095,3,8,-22,9,,0.75,2,-5.5,2.25,,0.00075,0.002,-0.0055,0.00225,,0.0075,0.02,-0.055,0.0225
1096,3,5,-9,13,,0.75,1.25,-2.25,3.25,,0.00075,0.00125,-0.00225,0.00325,,0.0075,0.0125,-0.0225,0.0325
1097,14,4,-15,13,,3.5,1,-3.75,3.25,,0.0035,0.001,-0.00375,0.00325,,0.035,0.01,-0.0375,0.0325
1098,7,7,-22,21,,1.75,1.75,-5.5,5.25,,0.00175,0.00175,-0.0055,0.00525,,0.0175,0.0175,-0.055,0.0525
1099,11,11,-25,29,,2.75,2.75,-6.25,7.25,,0.00275,0.00275,-0.00625,0.00725,,0.0275,0.0275,-0.0625,0.0725
1100,0,-2,-17,-83,,0,-0.5,-4.25,-20.75,,0,-0.0005,-0.00425,-0.02075,,0,-0.005,-0.0425,-0.2075
1101,-9,6,-27,-168,,-2.25,1.5,-6.75,-42,,-0.00225,0.0015,-0.00675,-0.042,,-0.0225,0.015,-0.0675,-0.42
1102,-11,2,2,-41,,-2.75,0.5,0.5,-10.25,,-0.00275,0.0005,0.0005,-0.01025,,-0.0275,0.005,0.005,-0.1025
1103,-1,2,16,92,,-0.25,0.5,4,23,,-0.00025,0.0005,0.004,0.023,,-0.0025,0.005,0.04,0.23
1104,-3,0,17,77,,-0.75,0,4.25,19.25,,-0.00075,0,0.00425,0.01925,,-0.0075,0,0.0425,0.1925
1105,-13,1,15,49,,-3.25,0.25,3.75,12.25,,-0.00325,0.00025,0.00375,0.01225,,-0.0325,0.0025,0.0375,0.1225
1106,-1,-1,13,15,,-0.25,-0.25,3.25,3.75,,-0.00025,-0.00025,0.00325,0.00375,,-0.0025,-0.0025,0.0325,0.0375
1107,-14,-3,11,3,,-3.5,-0.75,2.75,0.75,,-0.0035,-0.00075,0.00275,0.00075,,-0.035,-0.0075,0.0275,0.0075
1108,5,-14,10,11,,1.25,-3.5,2.5,2.75,,0.00125,-0.0035,0.0025,0.00275,,0.0125,-0.035,0.025,0.0275
1109,-1,-2,22,7,,-0.25,-0.5,5.5,1.75,,-0.00025,-0.0005,0.0055,0.00175,,-0.0025,-0.005,0.055,0.0175
1110,-2,-4,4,9,,-0.5,-1,1,2.25,,-0.0005,-0.001,0.001,0.00225,,-0.005,-0.01,0.01,0.0225
1111,7,-5,-8,11,,1.75,-1.25,-2,2.75,,0.00175,-0.00125,-0.002,0.00275,,0.0175,-0.0125,-0.02,0.0275
1112,16,-2,-19,18,,4,-0.5,-4.75,4.5,,0.004,-0.0005,-0.00475,0.0045,,0.04,-0.005,-0.0475,0.045
1113,12,-3,-24,26,,3,-0.75,-6,6.5,,0.003,-0.00075,-0.006,0.0065,,0.03,-0.0075,-0.06,0.065
1114,3,2,-21,23,,0.75,0.5,-5.25,5.75,,0.00075,0.0005,-0.00525,0.00575,,0.0075,0.005,-0.0525,0.0575
1115,-3,10,-20,17,,-0.75,2.5,-5,4.25,,-0.00075,0.0025,-0.005,0.00425,,-0.0075,0.025,-0.05,0.0425
1116,9,9,-16,4,,2.25,2.25,-4,1,,0.00225,0.00225,-0.004,0.001,,0.0225,0.0225,-0.04,0.01
1117,2,-5,-10,6,,0.5,-1.25,-2.5,1.5,,0.0005,-0.00125,-0.0025,0.0015,,0.005,-0.0125,-0.025,0.015
1118,4,6,0,11,,1,1.5,0,2.75,,0.001,0.0015,0,0.00275,,0.01,0.015,0,0.0275
1119,0,-4,0,1,,0,-1,0,0.25,,0,-0.001,0,0.00025,,0,-0.01,0,0.0025
1120,-6,-2,7,3,,-1.5,-0.5,1.75,0.75,,-0.0015,-0.0005,0.00175,0.00075,,-0.015,-0.005,0.0175,0.0075
1121,-6,-2,17,7,,-1.5,-0.5,4.25,1.75,,-0.0015,-0.0005,0.00425,0.00175,,-0.015,-0.005,0.0425,0.0175
1122,-15,-6,21,8,,-3.75,-1.5,5.25,2,,-0.00375,-0.0015,0.00525,0.002,,-0.0375,-0.015,0.0525,0.02
1123,-3,-5,28,-8,,-0.75,-1.25,7,-2,,-0.00075,-0.00125,0.007,-0.002,,-0.0075,-0.0125,0.07,-0.02
1124,1,-4,9,0,,0.25,-1,2.25,0,,0.00025,-0.001,0.00225,0,,0.0025,-0.01,0.0225,0
1125,-9,-8,36,12,,-2.25,-2,9,3,,-0.00225,-0.002,0.009,0.003,,-0.0225,-0.02,0.09,0.03
1126,-5,-8,63,7,,-1.25,-2,15.75,1.75,,-0.00125,-0.002,0.01575,0.00175,,-0.0125,-0.02,0.1575,0.0175
1127,15,9,5,14,,3.75,2.25,1.25,3.5,,0.00375,0.00225,0.00125,0.0035,,0.0375,0.0225,0.0125,0.035
1128,12,12,-33,13,,3,3,-8.25,3.25,,0.003,0.003,-0.00825,0.00325,,0.03,0.03,-0.0825,0.0325
1129,-1,-1,-28,5,,-0.25,-0.25,-7,1.25,,-0.00025,-0.00025,-0.007,0.00125,,-0.0025,-0.0025,-0.07,0.0125
1130,2,-4,-46,12,,0.5,-1,-11.5,3,,0.0005,-0.001,-0.0115,0.003,,0.005,-0.01,-0.115,0.03
1131,9,2,-20,11,,2.25,0.5,-5,2.75,,0.00225,0.0005,-0.005,0.00275,,0.0225,0.005,-0.05,0.0275
1132,10,5,-8,-2,,2.5,1.25,-2,-0.5,,0.0025,0.00125,-0.002,-0.0005,,0.025,0.0125,-0.02,-0.005
1133,-4,6,-21,-16,,-1,1.5,-5.25,-4,,-0.001,0.0015,-0.00525,-0.004,,-0.01,0.015,-0.0525,-0.04
1134,-19,3,-26,-81,,-4.75,0.75,-6.5,-20.25,,-0.00475,0.00075,-0.0065,-0.02025,,-0.0475,0.0075,-0.065,-0.2025
1135,-5,-4,5,-48,,-1.25,-1,1.25,-12,,-0.00125,-0.001,0.00125,-0.012,,-0.0125,-0.01,0.0125,-0.12
1136,-2,-9,13,60,,-0.5,-2.25,3.25,15,,-0.0005,-0.00225,0.00325,0.015,,-0.005,-0.0225,0.0325,0.15
1137,3,-5,123,48,,0.75,-1.25,30.75,12,,0.00075,-0.00125,0.03075,0.012,,0.0075,-0.0125,0.3075,0.12
1138,-5,2,170,31,,-1.25,0.5,42.5,7.75,,-0.00125,0.0005,0.0425,0.00775,,-0.0125,0.005,0.425,0.0775
1139,-8,-7,-98,18,,-2,-1.75,-24.5,4.5,,-0.002,-0.00175,-0.0245,0.0045,,-0.02,-0.0175,-0.245,0.045
1140,-6,3,-123,6,,-1.5,0.75,-30.75,1.5,,-0.0015,0.00075,-0.03075,0.0015,,-0.015,0.0075,-0.3075,0.015
1141,-13,2,-66,-28,,-3.25,0.5,-16.5,-7,,-0.00325,0.0005,-0.0165,-0.007,,-0.0325,0.005,-0.165,-0.07
1142,19,-2,72,-4,,4.75,-0.5,18,-1,,0.00475,-0.0005,0.018,-0.001,,0.0475,-0.005,0.18,-0.01
1143,-7,4,26,31,,-1.75,1,6.5,7.75,,-0.00175,0.001,0.0065,0.00775,,-0.0175,0.01,0.065,0.0775
1144,-7,10,3,2,,-1.75,2.5,0.75,0.5,,-0.00175,0.0025,0.00075,0.0005,,-0.0175,0.025,0.0075,0.005
1145,-1,-3,-10,10,,-0.25,-0.75,-2.5,2.5,,-0.00025,-0.00075,-0.0025,0.0025,,-0.0025,-0.0075,-0.025,0.025
1146,-4,1,22,17,,-1,0.25,5.5,4.25,,-0.001,0.00025,0.0055,0.00425,,-0.01,0.0025,0.055,0.0425
1147,-2,12,-13,-16,,-0.5,3,-3.25,-4,,-0.0005,0.003,-0.00325,-0.004,,-0.005,0.03,-0.0325,-0.04
1148,4,10,197,12,,1,2.5,49.25,3,,0.001,0.0025,0.04925,0.003,,0.01,0.025,0.4925,0.03
1149,-4,9,6,6,,-1,2.25,1.5,1.5,,-0.001,0.00225,0.0015,0.0015,,-0.01,0.0225,0.015,0.015
1150,13,-4,-23,-2,,3.25,-1,-5.75,-0.5,,0.00325,-0.001,-0.00575,-0.0005,,0.0325,-0.01,-0.0575,-0.005
1151,8,3,-42,10,,2,0.75,-10.5,2.5,,0.002,0.00075,-0.0105,0.0025,,0.02,0.0075,-0.105,0.025
1152,-5,5,-2,10,,-1.25,1.25,-0.5,2.5,,-0.00125,0.00125,-0.0005,0.0025,,-0.0125,0.0125,-0.005,0.025
1153,-9,-3,-51,4,,-2.25,-0.75,-12.75,1,,-0.00225,-0.00075,-0.01275,0.001,,-0.0225,-0.0075,-0.1275,0.01
1154,-6,1,-6,10,,-1.5,0.25,-1.5,2.5,,-0.0015,0.00025,-0.0015,0.0025,,-0.015,0.0025,-0.015,0.025
1155,-12,-9,15,7,,-3,-2.25,3.75,1.75,,-0.003,-0.00225,0.00375,0.00175,,-0.03,-0.0225,0.0375,0.0175
1156,-8,-8,6,4,,-2,-2,1.5,1,,-0.002,-0.002,0.0015,0.001,,-0.02,-0.02,0.015,0.01
1157,-10,1,16,5,,-2.5,0.25,4,1.25,,-0.0025,0.00025,0.004,0.00125,,-0.025,0.0025,0.04,0.0125
1158,2,-12,7,3,,0.5,-3,1.75,0.75,,0.0005,-0.003,0.00175,0.00075,,0.005,-0.03,0.0175,0.0075
1159,-4,-4,3,3,,-1,-1,0.75,0.75,,-0.001,-0.001,0.00075,0.00075,,-0.01,-0.01,0.0075,0.0075
1160,2,-1,24,7,,0.5,-0.25,6,1.75,,0.0005,-0.00025,0.006,0.00175,,0.005,-0.0025,0.06,0.0175
1161,10,5,51,10,,2.5,1.25,12.75,2.5,,0.0025,0.00125,0.01275,0.0025,,0.025,0.0125,0.1275,0.025
1162,2,6,10,11,,0.5,1.5,2.5,2.75,,0.0005,0.0015,0.0025,0.00275,,0.005,0.015,0.025,0.0275
1163,11,1,25,10,,2.75,0.25,6.25,2.5,,0.00275,0.00025,0.00625,0.0025,,0.0275,0.0025,0.0625,0.025
1164,5,2,-26,18,,1.25,0.5,-6.5,4.5,,0.00125,0.0005,-0.0065,0.0045,,0.0125,0.005,-0.065,0.045
1165,3,14,-31,0,,0.75,3.5,-7.75,0,,0.00075,0.0035,-0.00775,0,,0.0075,0.035,-0.0775,0
1166,5,5,-18,9,,1.25,1.25,-4.5,2.25,,0.00125,0.00125,-0.0045,0.00225,,0.0125,0.0125,-0.045,0.0225
1167,10,3,2,5,,2.5,0.75,0.5,1.25,,0.0025,0.00075,0.0005,0.00125,,0.025,0.0075,0.005,0.0125
1168,7,0,44,-5,,1.75,0,11,-1.25,,0.00175,0,0.011,-0.00125,,0.0175,0,0.11,-0.0125
1169,-8,-5,5,-8,,-2,-1.25,1.25,-2,,-0.002,-0.00125,0.00125,-0.002,,-0.02,-0.0125,0.0125,-0.02
1170,-4,-1,-18,10,,-1,-0.25,-4.5,2.5,,-0.001,-0.00025,-0.0045,0.0025,,-0.01,-0.0025,-0.045,0.025
1171,-4,-11,-3,14,,-1,-2.75,-0.75,3.5,,-0.001,-0.00275,-0.00075,0.0035,,-0.01,-0.0275,-0.0075,0.035
1172,2,-6,14,8,,0.5,-1.5,3.5,2,,0.0005,-0.0015,0.0035,0.002,,0.005,-0.015,0.035,0.02
1173,-8,6,30,-6,,-2,1.5,7.5,-1.5,,-0.002,0.0015,0.0075,-0.0015,,-0.02,0.015,0.075,-0.015
1174,3,-2,22,-13,,0.75,-0.5,5.5,-3.25,,0.00075,-0.0005,0.0055,-0.00325,,0.0075,-0.005,0.055,-0.0325
1175,-4,-4,-12,-8,,-1,-1,-3,-2,,-0.001,-0.001,-0.003,-0.002,,-0.01,-0.01,-0.03,-0.02
1176,2,2,-18,5,,0.5,0.5,-4.5,1.25,,0.0005,0.0005,-0.0045,0.00125,,0.005,0.005,-0.045,0.0125
1177,7,-1,-23,6,,1.75,-0.25,-5.75,1.5,,0.00175,-0.00025,-0.00575,0.0015,,0.0175,-0.0025,-0.0575,0.015
1178,18,-4,-18,33,,4.5,-1,-4.5,8.25,,0.0045,-0.001,-0.0045,0.00825,,0.045,-0.01,-0.045,0.0825
1179,12,-1,-13,34,,3,-0.25,-3.25,8.5,,0.003,-0.00025,-0.00325,0.0085,,0.03,-0.0025,-0.0325,0.085
1180,13,11,1,7,,3.25,2.75,0.25,1.75,,0.00325,0.00275,0.00025,0.00175,,0.0325,0.0275,0.0025,0.0175
1181,3,-3,25,6,,0.75,-0.75,6.25,1.5,,0.00075,-0.00075,0.00625,0.0015,,0.0075,-0.0075,0.0625,0.015
1182,6,7,9,8,,1.5,1.75,2.25,2,,0.0015,0.00175,0.00225,0.002,,0.015,0.0175,0.0225,0.02
1183,16,-1,-33,17,,4,-0.25,-8.25,4.25,,0.004,-0.00025,-0.00825,0.00425,,0.04,-0.0025,-0.0825,0.0425
1184,14,2,-22,15,,3.5,0.5,-5.5,3.75,,0.0035,0.0005,-0.0055,0.00375,,0.035,0.005,-0.055,0.0375
1185,11,5,45,14,,2.75,1.25,11.25,3.5,,0.00275,0.00125,0.01125,0.0035,,0.0275,0.0125,0.1125,0.035
1186,-3,-3,-105,-5,,-0.75,-0.75,-26.25,-1.25,,-0.00075,-0.00075,-0.02625,-0.00125,,-0.0075,-0.0075,-0.2625,-0.0125
1187,-10,-5,208,-16,,-2.5,-1.25,52,-4,,-0.0025,-0.00125,0.052,-0.004,,-0.025,-0.0125,0.52,-0.04
1188,-15,9,132,9,,-3.75,2.25,33,2.25,,-0.00375,0.00225,0.033,0.00225,,-0.0375,0.0225,0.33,0.0225
1189,0,10,-89,12,,0,2.5,-22.25,3,,0,0.0025,-0.02225,0.003,,0,0.025,-0.2225,0.03
1190,5,-14,-63,13,,1.25,-3.5,-15.75,3.25,,0.00125,-0.0035,-0.01575,0.00325,,0.0125,-0.035,-0.1575,0.0325
1191,10,-3,-8,27,,2.5,-0.75,-2,6.75,,0.0025,-0.00075,-0.002,0.00675,,0.025,-0.0075,-0.02,0.0675
1192,-4,-2,19,-10,,-1,-0.5,4.75,-2.5,,-0.001,-0.0005,0.00475,-0.0025,,-0.01,-0.005,0.0475,-0.025
1193,5,-5,-27,-1,,1.25,-1.25,-6.75,-0.25,,0.00125,-0.00125,-0.00675,-0.00025,,0.0125,-0.0125,-0.0675,-0.0025
1194,9,1,10,20,,2.25,0.25,2.5,5,,0.00225,0.00025,0.0025,0.005,,0.0225,0.0025,0.025,0.05
1195,6,-2,-19,28,,1.5,-0.5,-4.75,7,,0.0015,-0.0005,-0.00475,0.007,,0.015,-0.005,-0.0475,0.07
1196,14,-4,-40,15,,3.5,-1,-10,3.75,,0.0035,-0.001,-0.01,0.00375,,0.035,-0.01,-0.1,0.0375
1197,7,-2,-38,24,,1.75,-0.5,-9.5,6,,0.00175,-0.0005,-0.0095,0.006,,0.0175,-0.005,-0.095,0.06
1198,11,6,-16,37,,2.75,1.5,-4,9.25,,0.00275,0.0015,-0.004,0.00925,,0.0275,0.015,-0.04,0.0925
1199,13,-7,7,-29,,3.25,-1.75,1.75,-7.25,,0.00325,-0.00175,0.00175,-0.00725,,0.0325,-0.0175,0.0175,-0.0725
1200,-3,-3,21,12,,-0.75,-0.75,5.25,3,,-0.00075,-0.00075,0.00525,0.003,,-0.0075,-0.0075,0.0525,0.03
1201,4,-4,-61,13,,1,-1,-15.25,3.25,,0.001,-0.001,-0.01525,0.00325,,0.01,-0.01,-0.1525,0.0325
1202,-4,9,-35,14,,-1,2.25,-8.75,3.5,,-0.001,0.00225,-0.00875,0.0035,,-0.01,0.0225,-0.0875,0.035
1203,-3,-2,40,26,,-0.75,-0.5,10,6.5,,-0.00075,-0.0005,0.01,0.0065,,-0.0075,-0.005,0.1,0.065
1204,11,12,22,17,,2.75,3,5.5,4.25,,0.00275,0.003,0.0055,0.00425,,0.0275,0.03,0.055,0.0425
1205,-3,4,23,12,,-0.75,1,5.75,3,,-0.00075,0.001,0.00575,0.003,,-0.0075,0.01,0.0575,0.03
1206,1,-17,20,-3,,0.25,-4.25,5,-0.75,,0.00025,-0.00425,0.005,-0.00075,,0.0025,-0.0425,0.05,-0.0075
1207,-9,-6,17,10,,-2.25,-1.5,4.25,2.5,,-0.00225,-0.0015,0.00425,0.0025,,-0.0225,-0.015,0.0425,0.025
1208,-9,-1,9,6,,-2.25,-0.25,2.25,1.5,,-0.00225,-0.00025,0.00225,0.0015,,-0.0225,-0.0025,0.0225,0.015
1209,-1,1,13,28,,-0.25,0.25,3.25,7,,-0.00025,0.00025,0.00325,0.007,,-0.0025,0.0025,0.0325,0.07
1210,-11,6,4,12,,-2.75,1.5,1,3,,-0.00275,0.0015,0.001,0.003,,-0.0275,0.015,0.01,0.03
1211,-17,2,38,-133,,-4.25,0.5,9.5,-33.25,,-0.00425,0.0005,0.0095,-0.03325,,-0.0425,0.005,0.095,-0.3325
1212,-35,-1,-4,-254,,-8.75,-0.25,-1,-63.5,,-0.00875,-0.00025,-0.001,-0.0635,,-0.0875,-0.0025,-0.01,-0.635
1213,-14,12,-52,-243,,-3.5,3,-13,-60.75,,-0.0035,0.003,-0.013,-0.06075,,-0.035,0.03,-0.13,-0.6075
1214,30,2,-48,7,,7.5,0.5,-12,1.75,,0.0075,0.0005,-0.012,0.00175,,0.075,0.005,-0.12,0.0175
1215,42,3,9,217,,10.5,0.75,2.25,54.25,,0.0105,0.00075,0.00225,0.05425,,0.105,0.0075,0.0225,0.5425
1216,28,-2,154,126,,7,-0.5,38.5,31.5,,0.007,-0.0005,0.0385,0.0315,,0.07,-0.005,0.385,0.315
1217,1,-2,47,36,,0.25,-0.5,11.75,9,,0.00025,-0.0005,0.01175,0.009,,0.0025,-0.005,0.1175,0.09
1218,5,-5,-115,-46,,1.25,-1.25,-28.75,-11.5,,0.00125,-0.00125,-0.02875,-0.0115,,0.0125,-0.0125,-0.2875,-0.115
1219,-14,-6,-24,-30,,-3.5,-1.5,-6,-7.5,,-0.0035,-0.0015,-0.006,-0.0075,,-0.035,-0.015,-0.06,-0.075
1220,-9,-6,12,45,,-2.25,-1.5,3,11.25,,-0.00225,-0.0015,0.003,0.01125,,-0.0225,-0.015,0.03,0.1125
1221,6,4,1,39,,1.5,1,0.25,9.75,,0.0015,0.001,0.00025,0.00975,,0.015,0.01,0.0025,0.0975
1222,20,-4,1,38,,5,-1,0.25,9.5,,0.005,-0.001,0.00025,0.0095,,0.05,-0.01,0.0025,0.095
1223,-19,-2,21,23,,-4.75,-0.5,5.25,5.75,,-0.00475,-0.0005,0.00525,0.00575,,-0.0475,-0.005,0.0525,0.0575
1224,-3,11,16,8,,-0.75,2.75,4,2,,-0.00075,0.00275,0.004,0.002,,-0.0075,0.0275,0.04,0.02
1225,-3,-7,4,5,,-0.75,-1.75,1,1.25,,-0.00075,-0.00175,0.001,0.00125,,-0.0075,-0.0175,0.01,0.0125
1226,1,-3,0,6,,0.25,-0.75,0,1.5,,0.00025,-0.00075,0,0.0015,,0.0025,-0.0075,0,0.015
1227,0,8,-10,13,,0,2,-2.5,3.25,,0,0.002,-0.0025,0.00325,,0,0.02,-0.025,0.0325
1228,0,0,29,13,,0,0,7.25,3.25,,0,0,0.00725,0.00325,,0,0,0.0725,0.0325
1229,4,3,61,23,,1,0.75,15.25,5.75,,0.001,0.00075,0.01525,0.00575,,0.01,0.0075,0.1525,0.0575
1230,20,2,-54,20,,5,0.5,-13.5,5,,0.005,0.0005,-0.0135,0.005,,0.05,0.005,-0.135,0.05
1231,8,9,-49,3,,2,2.25,-12.25,0.75,,0.002,0.00225,-0.01225,0.00075,,0.02,0.0225,-0.1225,0.0075
1232,11,5,-33,3,,2.75,1.25,-8.25,0.75,,0.00275,0.00125,-0.00825,0.00075,,0.0275,0.0125,-0.0825,0.0075
1233,4,-1,-23,1,,1,-0.25,-5.75,0.25,,0.001,-0.00025,-0.00575,0.00025,,0.01,-0.0025,-0.0575,0.0025
1234,-2,-7,-12,5,,-0.5,-1.75,-3,1.25,,-0.0005,-0.00175,-0.003,0.00125,,-0.005,-0.0175,-0.03,0.0125
1235,2,9,-4,8,,0.5,2.25,-1,2,,0.0005,0.00225,-0.001,0.002,,0.005,0.0225,-0.01,0.02
1236,-5,-5,1,3,,-1.25,-1.25,0.25,0.75,,-0.00125,-0.00125,0.00025,0.00075,,-0.0125,-0.0125,0.0025,0.0075
1237,-3,-6,11,-2,,-0.75,-1.5,2.75,-0.5,,-0.00075,-0.0015,0.00275,-0.0005,,-0.0075,-0.015,0.0275,-0.005
1238,-6,-4,5,12,,-1.5,-1,1.25,3,,-0.0015,-0.001,0.00125,0.003,,-0.015,-0.01,0.0125,0.03
1239,-7,-10,1,7,,-1.75,-2.5,0.25,1.75,,-0.00175,-0.0025,0.00025,0.00175,,-0.0175,-0.025,0.0025,0.0175
1240,-17,-6,26,-1,,-4.25,-1.5,6.5,-0.25,,-0.00425,-0.0015,0.0065,-0.00025,,-0.0425,-0.015,0.065,-0.0025
1241,0,-3,14,-4,,0,-0.75,3.5,-1,,0,-0.00075,0.0035,-0.001,,0,-0.0075,0.035,-0.01
1242,0,-1,11,10,,0,-0.25,2.75,2.5,,0,-0.00025,0.00275,0.0025,,0,-0.0025,0.0275,0.025
1243,-1,-4,10,6,,-0.25,-1,2.5,1.5,,-0.00025,-0.001,0.0025,0.0015,,-0.0025,-0.01,0.025,0.015
1244,10,4,6,1,,2.5,1,1.5,0.25,,0.0025,0.001,0.0015,0.00025,,0.025,0.01,0.015,0.0025
1245,-1,-2,-9,10,,-0.25,-0.5,-2.25,2.5,,-0.00025,-0.0005,-0.00225,0.0025,,-0.0025,-0.005,-0.0225,0.025
1246,5,7,-15,4,,1.25,1.75,-3.75,1,,0.00125,0.00175,-0.00375,0.001,,0.0125,0.0175,-0.0375,0.01
1247,7,5,-31,11,,1.75,1.25,-7.75,2.75,,0.00175,0.00125,-0.00775,0.00275,,0.0175,0.0125,-0.0775,0.0275
1248,5,7,197,22,,1.25,1.75,49.25,5.5,,0.00125,0.00175,0.04925,0.0055,,0.0125,0.0175,0.4925,0.055
1249,6,7,67,7,,1.5,1.75,16.75,1.75,,0.0015,0.00175,0.01675,0.00175,,0.015,0.0175,0.1675,0.0175
1250,13,11,-133,-5,,3.25,2.75,-33.25,-1.25,,0.00325,0.00275,-0.03325,-0.00125,,0.0325,0.0275,-0.3325,-0.0125
1251,8,-2,-58,9,,2,-0.5,-14.5,2.25,,0.002,-0.0005,-0.0145,0.00225,,0.02,-0.005,-0.145,0.0225
1252,5,-5,-6,5,,1.25,-1.25,-1.5,1.25,,0.00125,-0.00125,-0.0015,0.00125,,0.0125,-0.0125,-0.015,0.0125
1253,-6,10,3,10,,-1.5,2.5,0.75,2.5,,-0.0015,0.0025,0.00075,0.0025,,-0.015,0.025,0.0075,0.025
1254,-5,-8,12,11,,-1.25,-2,3,2.75,,-0.00125,-0.002,0.003,0.00275,,-0.0125,-0.02,0.03,0.0275
1255,-6,-3,-7,4,,-1.5,-0.75,-1.75,1,,-0.0015,-0.00075,-0.00175,0.001,,-0.015,-0.0075,-0.0175,0.01
1256,-4,2,8,9,,-1,0.5,2,2.25,,-0.001,0.0005,0.002,0.00225,,-0.01,0.005,0.02,0.0225
1257,-6,-6,24,0,,-1.5,-1.5,6,0,,-0.0015,-0.0015,0.006,0,,-0.015,-0.015,0.06,0
